119976.83,501

119976.83,501

119976.83,501

119976.83,501

119976.83,502

119992.96,502

119992.96,501

119992.96,500

119992.96,500

119992.96,501

119992.96,502

119992.96,501

119992.96,500

119992.96,499

119992.96,499

119992.96,499

119992.96,499

119992.96,499

120054.44,498

120054.44,498

120054.44,497

120054.44,496

120054.44,496

120054.44,496

120054.44,496

120054.44,495

120054.44,495

120054.44,494

120054.44,493

120054.44,493

120054.44,492

120051.94,492

120051.94,492

120051.94,491

120051.94,490

120051.94,491

120051.94,490

120051.94,491

120051.94,489

120051.94,489

120051.94,487

120051.94,487

120051.94,487

120051.94,486

120081.19,486

120081.19,485

120081.19,485

120081.19,485

120081.19,484

120081.19,484

120081.19,485

120081.19,484

120081.19,483

120081.19,483

120081.19,485

120081.19,486

120081.19,488

120081.19,489

120117.59,492

120117.59,494

120117.59,497

120117.59,501

120117.59,505

120117.59,510

120117.59,514

120117.59,520

120117.59,525

120117.59,531

120117.59,537

120117.59,544

120117.59,550

120126.89,557

120126.89,563

120126.89,569

120126.89,577

120126.89,584

120126.89,591

120126.89,597

120126.89,603

120126.89,608

120126.89,614

120126.89,619

120126.89,625

120126.89,630

120127.72,633

120127.72,636

120127.72,639

120127.72,642

120127.72,644

120127.72,645

120127.72,647

120127.72,647

120127.72,646

120127.72,645

120127.72,644

120127.72,643

120127.72,641

120096.64,638

120096.64,634

120096.64,630

120096.64,626

120096.64,622

120096.64,619

120096.64,614

120096.64,608

120096.64,602

120096.64,597

120096.64,591

120096.64,586

120096.64,580

120096.64,574

120079.70,567

120079.70,560

120079.70,554

120079.70,548

120079.70,542

120079.70,536

120079.70,530

120079.70,524

120079.70,517

120079.70,513

120079.70,508

120079.70,503

120079.70,498

120030.51,493

120030.51,487

120030.51,484

120030.51,480

120030.51,476

120030.51,473

120030.51,469

120030.51,465

120030.51,462

120030.51,459

120030.51,458

120030.51,455

120030.51,453

120006.08,451

120006.08,449

120006.08,448

120006.08,447

120006.08,447

120006.08,447

120006.08,446

120006.08,445

120006.08,445

120006.08,445

120006.08,446

120006.08,447

120006.08,448

120017.88,449

120017.88,450

120017.88,452

120017.88,453

120017.88,456

120017.88,459

120017.88,461

120017.88,463

120017.88,464

120017.88,467

120017.88,470

120017.88,473

120017.88,477

120017.88,479

120010.24,482

120010.24,485

120010.24,487

120010.24,492

120010.24,495

120010.24,498

120010.24,500

120010.24,503

120010.24,506

120010.24,509

120010.24,512

120010.24,515

120010.24,517

119988.13,519

119988.13,520

119988.13,523

119988.13,526

119988.13,528

119988.13,530

119988.13,530

119988.13,531

119988.13,532

119988.13,533

119988.13,534

119988.13,535

119988.13,535

119970.52,534

119970.52,533

119970.52,534

119970.52,534

119970.52,534

119970.52,533

119970.52,531

119970.52,530

119970.52,528

119970.52,528

119970.52,527

119970.52,525

119970.52,523

119960.22,521

119960.22,518

119960.22,516

119960.22,515

119960.22,513

119960.22,511

119960.22,509

119960.22,506

119960.22,504

119960.22,502

119960.22,500

119960.22,499

119960.22,496

119935.63,494

119935.63,492

119935.63,490

119935.63,488

119935.63,487

119935.63,485

119935.63,483

119935.63,481

119935.63,479

119935.63,478

119935.63,477

119935.63,477

119935.63,475

119935.63,473

119919.00,472

119919.00,472

119919.00,472

119919.00,471

119919.00,470

119919.00,469

119919.00,468

119919.00,468

119919.00,468

119919.00,469

119919.00,469

119919.00,468

119919.00,468

119891.92,467

119891.92,468

119891.92,468

119891.92,469

119891.92,470

119891.92,469

119891.92,470

119891.92,469

119891.92,470

119891.92,471

119891.92,473

119891.92,473

119891.92,472

119850.88,473

119850.88,474

119850.88,476

119850.88,476

119850.88,477

119850.88,477

119850.88,479

119850.88,479

119850.88,481

119850.88,483

119850.88,484

119850.88,484

119850.88,484

119834.42,485

119834.42,486

119834.42,487

119834.42,490

119834.42,491

119834.42,491

119834.42,492

119834.42,491

119834.42,492

119834.42,494

119834.42,496

119834.42,495

119834.42,496

119834.42,495

119832.77,496

119832.77,497

119832.77,499

119832.77,499

119832.77,500

119832.77,499

119832.77,500

119832.77,500

119832.77,501

119832.77,502

119832.77,502

119832.77,501

119832.77,501

119844.23,502

119844.23,502

119844.23,502

119844.23,503

119844.23,503

119844.23,502

119844.23,503

119844.23,502

119844.23,503

119844.23,503

119844.23,503

119844.23,502

119844.23,502

119865.67,502

119865.67,502

119865.67,502

119865.67,502

119865.67,502

119865.67,500

119865.67,499

119865.67,499

119865.67,499

119865.67,499

119865.67,499

119865.67,498

119865.67,497

119848.39,497

119848.39,496

119848.39,496

119848.39,496

119848.39,495

119848.39,494

119848.39,493

119848.39,493

119848.39,492

119848.39,493

119848.39,491

119848.39,491

119848.39,490

119865.17,489

119865.17,490

119865.17,490

119865.17,489

119865.17,488

119865.17,488

119865.17,487

119865.17,488

119865.17,487

119865.17,490

119865.17,490

119865.17,491

119865.17,492

119865.17,493

119885.94,496

119885.94,499

119885.94,502

119885.94,507

119885.94,509

119885.94,514

119885.94,518

119885.94,523

119885.94,529

119885.94,535

119885.94,540

119885.94,545

119885.94,551

119877.80,558

119877.80,565

119877.80,572

119877.80,578

119877.80,583

119877.80,589

119877.80,595

119877.80,601

119877.80,607

119877.80,612

119877.80,617

119877.80,621

119877.80,625

119875.64,628

119875.64,632

119875.64,635

119875.64,636

119875.64,637

119875.64,638

119875.64,638

119875.64,639

119875.64,639

119875.64,638

119875.64,637

119875.64,635

119875.64,631

119846.55,629

119846.55,626

119846.55,623

119846.55,619

119846.55,614

119846.55,609

119846.55,604

119846.55,599

119846.55,593

119846.55,588

119846.55,582

119846.55,576

119846.55,569

119880.12,563

119880.12,558

119880.12,552

119880.12,546

119880.12,540

119880.12,534

119880.12,527

119880.12,522

119880.12,517

119880.12,511

119880.12,506

119880.12,501

119880.12,496

119880.12,491

119872.48,487

119872.48,483

119872.48,479

119872.48,475

119872.48,471

119872.48,467

119872.48,464

119872.48,462

119872.48,460

119872.48,457

119872.48,454

119872.48,451

119872.48,450

119890.10,448

119890.10,448

119890.10,446

119890.10,446

119890.10,444

119890.10,443

119890.10,444

119890.10,444

119890.10,444

119890.10,444

119890.10,445

119890.10,446

119890.10,447

119917.85,449

119917.85,450

119917.85,453

119917.85,454

119917.85,455

119917.85,457

119917.85,459

119917.85,463

119917.85,466

119917.85,468

119917.85,470

119917.85,473

119917.85,476

119929.64,480

119929.64,483

119929.64,486

119929.64,489

119929.64,492

119929.64,495

119929.64,499

119929.64,502

119929.64,505

119929.64,508

119929.64,511

119929.64,513

119929.64,516

119935.78,518

119935.78,521

119935.78,523

119935.78,525

119935.78,526

119935.78,528

119935.78,530

119935.78,531

119935.78,532

119935.78,533

119935.78,533

119935.78,534

119935.78,534

119965.70,534

119965.70,534

119965.70,534

119965.70,533

119965.70,531

119965.70,531

119965.70,530

119965.70,530

119965.70,529

119965.70,528

119965.70,526

119965.70,524

119965.70,523

119965.70,521

119979.16,520

119979.16,518

119979.16,516

119979.16,513

119979.16,511

119979.16,509

119979.16,508

119979.16,506

119979.16,503

119979.16,501

119979.16,498

119979.16,496

119979.16,494

120002.75,493

120002.75,492

120002.75,489

120002.75,486

120002.75,484

120002.75,482

120002.75,481

120002.75,480

120002.75,478

120002.75,477

120002.75,475

120002.75,473

120002.75,472

120051.28,472

120051.28,471

120051.28,470

120051.28,469

120051.28,467

120051.28,467

120051.28,467

120051.28,467

120051.28,466

120051.28,466

120051.28,465

120051.28,464

120051.28,464

120083.68,465

120083.68,466

120083.68,466

120083.68,466

120083.68,465

120083.68,465

120083.68,466

120083.68,467

120083.68,467

120083.68,468

120083.68,468

120083.68,468

120083.68,470

120083.68,471

120105.46,472

120105.46,472

120105.46,473

120105.46,473

120105.46,475

120105.46,476

120105.46,477

120105.46,478

120105.46,479

120105.46,479

120105.46,480

120105.46,481

120105.46,483

120152.32,484

120152.32,485

120152.32,485

120152.32,485

120152.32,487

120152.32,487

120152.32,489

120152.32,490

120152.32,490

120152.32,491

120152.32,491

120152.32,491

120152.32,493

120180.90,494

120180.90,495

120180.90,495

120180.90,495

120180.90,495

120180.90,496

120180.90,497

120180.90,498

120180.90,498

120180.90,497

120180.90,497

120180.90,497

120180.90,498

120200.35,498

120200.35,499

120200.35,498

120200.35,498

120200.35,498

120200.35,499

120200.35,499

120200.35,500

120200.35,499

120200.35,499

120200.35,499

120200.35,499

120200.35,499

120281.94,500

120281.94,500

120281.94,500

120281.94,499

120281.94,498

120281.94,498

120281.94,499

120281.94,499

120281.94,499

120281.94,497

120281.94,497

120281.94,497

120281.94,497

120281.94,498

120313.52,497

120313.52,496

120313.52,495

120313.52,494

120313.52,495

120313.52,495

120313.52,495

120313.52,494

120313.52,493

120313.52,492

120313.52,492

120313.52,492

120313.52,493

120372.85,492

120372.85,492

120372.85,490

120372.85,490

120372.85,490

120372.85,490

120372.85,490

120372.85,489

120372.85,488

120372.85,487

120372.85,487

120372.85,488

120372.85,487

120452.79,488

120452.79,488

120452.79,487

120452.79,487

120452.79,488

120452.79,490

120452.79,491

120452.79,493

120452.79,494

120452.79,496

120452.79,498

120452.79,502

120452.79,506

120499.33,510

120499.33,514

120499.33,518

120499.33,523

120499.33,528

120499.33,534

120499.33,541

120499.33,546

120499.33,552

120499.33,558

120499.33,564

120499.33,571

120499.33,578

120555.50,585

120555.50,591

120555.50,596

120555.50,602

120555.50,607

120555.50,613

120555.50,618

120555.50,623

120555.50,626

120555.50,629

120555.50,632

120555.50,635

120555.50,638

120555.50,640

120606.53,640

120606.53,641

120606.53,641

120606.53,640

120606.53,640

120606.53,639

120606.53,637

120606.53,635

120606.53,631

120606.53,628

120606.53,625

120606.53,621

120606.53,618

120592.89,612

120592.89,607

120592.89,601

120592.89,596

120592.89,591

120592.89,586

120592.89,580

120592.89,574

120592.89,568

120592.89,561

120592.89,556

120592.89,550

120592.89,545

120604.21,538

120604.21,533

120604.21,526

120604.21,521

120604.21,516

120604.21,511

120604.21,505

120604.21,500

120604.21,495

120604.21,490

120604.21,486

120604.21,481

120604.21,478

120600.71,474

120600.71,470

120600.71,467

120600.71,463

120600.71,460

120600.71,458

120600.71,455

120600.71,453

120600.71,450

120600.71,447

120600.71,446

120600.71,446

120600.71,445

120600.71,444

120612.52,443

120612.52,443

120612.52,443

120612.52,443

120612.52,444

120612.52,445

120612.52,446

120612.52,446

120612.52,447

120612.52,449

120612.52,451

120612.52,453

120612.52,455

120596.56,458

120596.56,460

120596.56,462

120596.56,465

120596.56,469

120596.56,471

120596.56,474

120596.56,477

120596.56,480

120596.56,483

120596.56,488

120596.56,492

120596.56,495

120576.44,498

120576.44,501

120576.44,504

120576.44,507

120576.44,511

120576.44,514

120576.44,517

120576.44,519

120576.44,521

120576.44,524

120576.44,526

120576.44,528

120576.44,530

120568.14,532

120568.14,532

120568.14,533

120568.14,535

120568.14,537

120568.14,537

120568.14,537

120568.14,538

120568.14,537

120568.14,537

120568.14,537

120568.14,537

120568.14,536

120551.35,536

120551.35,534

120551.35,531

120551.35,531

120551.35,531

120551.35,529

120551.35,527

120551.35,524

120551.35,522

120551.35,521

120551.35,519

120551.35,518

120551.35,516

120551.35,514

120523.10,510

120523.10,508

120523.10,506

120523.10,505

120523.10,503

120523.10,501

120523.10,498

120523.10,496

120523.10,494

120523.10,491

120523.10,490

120523.10,489

120523.10,487

120501.16,484

120501.16,483

120501.16,482

120501.16,480

120501.16,479

120501.16,477

120501.16,476

120501.16,474

120501.16,473

120501.16,472

120501.16,472

120501.16,471

120501.16,470

120459.11,469

120459.11,467

120459.11,467

120459.11,468

120459.11,468

120459.11,467

120459.11,466

120459.11,466

120459.11,466

120459.11,466

120459.11,467

120459.11,467

120459.11,468

120402.77,467

120402.77,467

120402.77,467

120402.77,469

120402.77,470

120402.77,470

120402.77,471

120402.77,470

120402.77,472

120402.77,472

120402.77,474

120402.77,475

120402.77,476

120373.68,477

120373.68,477

120373.68,478

120373.68,480

120373.68,481

120373.68,482

120373.68,483

120373.68,484

120373.68,484

120373.68,486

120373.68,487

120373.68,488

120373.68,490

120373.68,490

120353.91,490

120353.91,491

120353.91,493

120353.91,494

120353.91,495

120353.91,496

120353.91,496

120353.91,496

120353.91,497

120353.91,498

120353.91,499

120353.91,500

120353.91,500

120320.67,499

120320.67,499

120320.67,501

120320.67,501

120320.67,502

120320.67,502

120320.67,502

120320.67,502

120320.67,502

120320.67,503

120320.67,503

120320.67,503

120320.67,502

120299.06,502

120299.06,502

120299.06,502

120299.06,502

120299.06,503

120299.06,503

120299.06,501

120299.06,500

120299.06,500

120299.06,501

120299.06,501

120299.06,500

120299.06,499

120288.10,498

120288.10,498

120288.10,497

120288.10,497

120288.10,497

120288.10,497

120288.10,496

120288.10,494

120288.10,494

120288.10,494

120288.10,494

120288.10,493

120288.10,493

120249.86,492

120249.86,491

120249.86,490

120249.86,491

120249.86,491

120249.86,490

120249.86,489

120249.86,488

120249.86,487

120249.86,487

120249.86,488

120249.86,488

120249.86,487

120249.86,487

120259.84,487

120259.84,488

120259.84,489

120259.84,490

120259.84,491

120259.84,492

120259.84,493

120259.84,496

120259.84,499

120259.84,503

120259.84,508

120259.84,511

120259.84,515

120253.69,519

120253.69,524

120253.69,530

120253.69,536

120253.69,542

120253.69,548

120253.69,553

120253.69,560

120253.69,566

120253.69,573

120253.69,580

120253.69,586

120253.69,592

120264.16,598

120264.16,604

120264.16,609

120264.16,615

120264.16,620

120264.16,624

120264.16,627

120264.16,631

120264.16,635

120264.16,638

120264.16,639

120264.16,641

120264.16,641

120242.39,642

120242.39,642

120242.39,642

120242.39,641

120242.39,640

120242.39,638

120242.39,635

120242.39,632

120242.39,629

120242.39,626

120242.39,622

120242.39,618

120242.39,613

120237.57,608

120237.57,604

120237.57,599

120237.57,594

120237.57,587

120237.57,582

120237.57,576

120237.57,568

120237.57,563

120237.57,558

120237.57,552

120237.57,546

120237.57,539

120237.57,533

120214.97,527

120214.97,523

120214.97,517

120214.97,512

120214.97,506

120214.97,500

120214.97,496

120214.97,492

120214.97,487

120214.97,483

120214.97,479

120214.97,475

120214.97,471

120195.36,468

120195.36,465

120195.36,462

120195.36,460

120195.36,457

120195.36,455

120195.36,452

120195.36,450

120195.36,450

120195.36,449

120195.36,448

120195.36,446

120195.36,445

120184.56,444

120184.56,445

120184.56,446

120184.56,446

120184.56,446

120184.56,447

120184.56,448

120184.56,449

120184.56,451

120184.56,453

120184.56,456

120184.56,456

120184.56,459

120191.03,462

120191.03,464

120191.03,468

120191.03,470

120191.03,473

120191.03,475

120191.03,478

120191.03,480

120191.03,484

120191.03,488

120191.03,492

120191.03,494

120191.03,496

120191.03,498

120175.92,502

120175.92,506

120175.92,509

120175.92,511

120175.92,513

120175.92,515

120175.92,518

120175.92,521

120175.92,524

120175.92,526

120175.92,527

120175.92,529

120175.92,530

120169.93,531

120169.93,532

120169.93,533

120169.93,534

120169.93,534

120169.93,534

120169.93,534

120169.93,534

120169.93,534

120169.93,533

120169.93,533

120169.93,532

120169.93,531

120183.23,530

120183.23,529

120183.23,528

120183.23,526

120183.23,524

120183.23,522

120183.23,521

120183.23,519

120183.23,518

120183.23,516

120183.23,513

120183.23,511

120183.23,508

120179.90,507

120179.90,505

120179.90,504

120179.90,501

120179.90,499

120179.90,496

120179.90,495

120179.90,493

120179.90,491

120179.90,489

120179.90,487

120179.90,484

120179.90,483

120148.33,482

120148.33,481

120148.33,479

120148.33,478

120148.33,476

120148.33,474

120148.33,473

120148.33,473

120148.33,472

120148.33,471

120148.33,470

120148.33,469

120148.33,468

120148.33,467

120121.74,467

120121.74,467

120121.74,467

120121.74,466

120121.74,466

120121.74,466

120121.74,467

120121.74,467

120121.74,467

120121.74,467

120121.74,467

120121.74,468

120121.74,469

120074.21,469

120074.21,470

120074.21,471

120074.21,471

120074.21,471

120074.21,472

120074.21,473

120074.21,474

120074.21,475

120074.21,476

120074.21,476

120074.21,476

120074.21,478

120049.96,480

120049.96,481

120049.96,481

120049.96,483

120049.96,483

120049.96,484

120049.96,484

120049.96,486

120049.96,487

120049.96,489

120049.96,489

120049.96,489

120049.96,490

120044.13,492

120044.13,493

120044.13,494

120044.13,494

120044.13,495

120044.13,495

120044.13,496

120044.13,497

120044.13,498

120044.13,499

120044.13,498

120044.13,498

120044.13,499

120025.02,500

120025.02,501

120025.02,501

120025.02,501

120025.02,501

120025.02,501

120025.02,501

120025.02,502

120025.02,503

120025.02,503

120025.02,503

120025.02,502

120025.02,502

120025.02,502

120025.69,502

120025.69,503

120025.69,502

120025.69,501

120025.69,500

120025.69,501

120025.69,501

120025.69,501

120025.69,501

120025.69,501

120025.69,500

120025.69,500

120025.69,500

120015.55,499

120015.55,499

120015.55,498

120015.55,497

120015.55,496

120015.55,496

120015.55,496

120015.55,496

120015.55,496

120015.55,495

120015.55,493

120015.55,493

120015.55,492

120017.55,493

120017.55,492

120017.55,491

120017.55,490

120017.55,489

120017.55,489

120017.55,489

120017.55,489

120017.55,489

120017.55,488

120017.55,488

120017.55,486

120017.55,487

120057.42,489

120057.42,490

120057.42,491

120057.42,492

120057.42,493

120057.42,495

120057.42,497

120057.42,501

120057.42,505

120057.42,508

120057.42,512

120057.42,515

120057.42,521

120057.42,527

120084.68,533

120084.68,538

120084.68,543

120084.68,549

120084.68,556

120084.68,563

120084.68,570

120084.68,576

120084.68,583

120084.68,589

120084.68,594

120084.68,601

120084.68,607

120064.24,613

120064.24,618

120064.24,622

120064.24,626

120064.24,630

120064.24,634

120064.24,637

120064.24,641

120064.24,642

120064.24,643

120064.24,644

120064.24,645

120064.24,646

120030.67,646

120030.67,644

120030.67,642

120030.67,639

120030.67,637

120030.67,634

120030.67,631

120030.67,628

120030.67,623

120030.67,618

120030.67,614

120030.67,609

120030.67,604

120004.42,600

120004.42,593

120004.42,588

120004.42,581

120004.42,575

120004.42,569

120004.42,563

120004.42,558

120004.42,552

120004.42,545

120004.42,538

120004.42,533

120004.42,528

119967.86,522

119967.86,517

119967.86,511

119967.86,504

119967.86,500

119967.86,495

119967.86,492

119967.86,488

119967.86,483

119967.86,478

119967.86,474

119967.86,471

119967.86,468

119967.86,466

119926.64,463

119926.64,460

119926.64,458

119926.64,455

119926.64,454

119926.64,453

119926.64,452

119926.64,451

119926.64,449

119926.64,449

119926.64,448

119926.64,449

119926.64,449

119921.17,449

119921.17,449

119921.17,450

119921.17,451

119921.17,453

119921.17,455

119921.17,456

119921.17,458

119921.17,460

119921.17,461

119921.17,464

119921.17,467

119921.17,470

119921.67,473

119921.67,476

119921.67,478

119921.67,480

119921.67,484

119921.67,487

119921.67,491

119921.67,494

119921.67,496

119921.67,499

119921.67,502

119921.67,505

119921.67,509

119924.49,512

119924.49,515

119924.49,516

119924.49,518

119924.49,521

119924.49,523

119924.49,526

119924.49,527

119924.49,529

119924.49,529

119924.49,531

119924.49,532

119924.49,533

119916.85,535

119916.85,534

119916.85,533

119916.85,534

119916.85,534

119916.85,534

119916.85,533

119916.85,533

119916.85,531

119916.85,530

119916.85,529

119916.85,528

119916.85,527

119916.85,526

119910.03,525

119910.03,522

119910.03,520

119910.03,519

119910.03,518

119910.03,516

119910.03,514

119910.03,512

119910.03,510

119910.03,507

119910.03,505

119910.03,504

119910.03,503

119896.57,500

119896.57,497

119896.57,495

119896.57,492

119896.57,491

119896.57,490

119896.57,487

119896.57,486

119896.57,483

119896.57,481

119896.57,480

119896.57,480

119896.57,478

119888.76,477

119888.76,476

119888.76,474

119888.76,472

119888.76,472

119888.76,471

119888.76,470

119888.76,469

119888.76,468

119888.76,468

119888.76,467

119888.76,469

119888.76,469

119879.96,468

119879.96,467

119879.96,467

119879.96,467

119879.96,468

119879.96,469

119879.96,469

119879.96,470

119879.96,470

119879.96,469

119879.96,470

119879.96,472

119879.96,472

119881.28,473

119881.28,474

119881.28,473

119881.28,474

119881.28,476

119881.28,477

119881.28,479

119881.28,479

119881.28,479

119881.28,479

119881.28,481

119881.28,482

119881.28,483

119881.28,484

119898.89,485

119898.89,485

119898.89,486

119898.89,487

119898.89,487

119898.89,489

119898.89,489

119898.89,489

119898.89,490

119898.89,490

119898.89,492

119898.89,493

119898.89,494

119919.34,494

119919.34,494

119919.34,495

119919.34,496

119919.34,497

119919.34,498

119919.34,497

119919.34,498

119919.34,498

119919.34,498

119919.34,498

119919.34,499

119919.34,499

119957.06,499

119957.06,499

119957.06,499

119957.06,499

119957.06,500

119957.06,501

119957.06,500

119957.06,499

119957.06,499

119957.06,499

119957.06,500

119957.06,501

119957.06,500

120016.38,499

120016.38,500

120016.38,498

120016.38,497

120016.38,498

120016.38,498

120016.38,499

120016.38,497

120016.38,496

120016.38,496

120016.38,496

120016.38,496

120016.38,496

120016.38,496

120076.21,494

120076.21,493

120076.21,493

120076.21,494

120076.21,494

120076.21,494

120076.21,492

120076.21,491

120076.21,491

120076.21,491

120076.21,491

120076.21,491

120076.21,490

120080.03,488

120080.03,488

120080.03,487

120080.03,487

120080.03,487

120080.03,487

120080.03,486

120080.03,484

120080.03,485

120080.03,484

120080.03,484

120080.03,484

120080.03,483

120161.28,483

120161.28,482

120161.28,482

120161.28,483

120161.28,483

120161.28,484

120161.28,483

120161.28,484

120161.28,483

120161.28,485

120161.28,487

120161.28,489

120161.28,491

120235.08,493

120235.08,495

120235.08,498

120235.08,502

120235.08,507

120235.08,511

120235.08,515

120235.08,520

120235.08,525

120235.08,532

120235.08,538

120235.08,545

120235.08,551

120280.78,557

120280.78,563

120280.78,570

120280.78,577

120280.78,584

120280.78,590

120280.78,596

120280.78,602

120280.78,607

120280.78,613

120280.78,618

120280.78,623

120280.78,628

120280.78,631

120291.08,634

120291.08,637

120291.08,641

120291.08,642

120291.08,644

120291.08,645

120291.08,644

120291.08,644

120291.08,643

120291.08,643

120291.08,642

120291.08,640

120291.08,637

120307.53,633

120307.53,630

120307.53,626

120307.53,622

120307.53,618

120307.53,612

120307.53,607

120307.53,601

120307.53,596

120307.53,590

120307.53,586

120307.53,579

120307.53,572

120337.12,566

120337.12,560

120337.12,555

120337.12,549

120337.12,543

120337.12,536

120337.12,530

120337.12,524

120337.12,519

120337.12,514

120337.12,509

120337.12,504

120337.12,498

120346.92,493

120346.92,488

120346.92,484

120346.92,480

120346.92,477

120346.92,474

120346.92,470

120346.92,466

120346.92,463

120346.92,461

120346.92,458

120346.92,457

120346.92,454

120346.92,452

120376.67,451

120376.67,449

120376.67,449

120376.67,448

120376.67,447

120376.67,446

120376.67,446

120376.67,447

120376.67,449

120376.67,448

120376.67,450

120376.67,450

120376.67,451

120432.35,453

120432.35,455

120432.35,457

120432.35,459

120432.35,462

120432.35,464

120432.35,466

120432.35,467

120432.35,471

120432.35,473

120432.35,478

120432.35,481

120432.35,483

120462.92,486

120462.92,489

120462.92,493

120462.92,496

120462.92,499

120462.92,502

120462.92,504

120462.92,508

120462.92,511

120462.92,513

120462.92,515

120462.92,518

120462.92,519

120508.96,521

120508.96,524

120508.96,526

120508.96,528

120508.96,530

120508.96,531

120508.96,531

120508.96,532

120508.96,533

120508.96,534

120508.96,535

120508.96,534

120508.96,534

120577.44,533

120577.44,533

120577.44,533

120577.44,533

120577.44,532

120577.44,530

120577.44,529

120577.44,527

120577.44,526

120577.44,526

120577.44,524

120577.44,522

120577.44,520

120577.44,517

120636.61,515

120636.61,514

120636.61,512

120636.61,510

120636.61,508

120636.61,506

120636.61,503

120636.61,501

120636.61,500

120636.61,498

120636.61,496

120636.61,493

120636.61,490

120694.63,488

120694.63,487

120694.63,485

120694.63,484

120694.63,482

120694.63,480

120694.63,478

120694.63,476

120694.63,476

120694.63,475

120694.63,474

120694.63,473

120694.63,471

120745.14,470

120745.14,469

120745.14,469

120745.14,468

120745.14,468

120745.14,467

120745.14,467

120745.14,467

120745.14,467

120745.14,468

120745.14,467

120745.14,467

120745.14,467

120793.02,468

120793.02,467

120793.02,468

120793.02,470

120793.02,470

120793.02,470

120793.02,470

120793.02,471

120793.02,473

120793.02,474

120793.02,475

120793.02,475

120793.02,475

120825.92,476

120825.92,477

120825.92,478

120825.92,480

120825.92,480

120825.92,480

120825.92,482

120825.92,483

120825.92,484

120825.92,485

120825.92,487

120825.92,487

120825.92,487

120825.92,489

120865.49,490

120865.49,491

120865.49,492

120865.49,493

120865.49,493

120865.49,493

120865.49,494

120865.49,496

120865.49,497

120865.49,497

120865.49,497

120865.49,497

120865.49,498

120905.39,499

120905.39,500

120905.39,501

120905.39,501

120905.39,500

120905.39,500

120905.39,501

120905.39,501

120905.39,502

120905.39,502

120905.39,502

120905.39,502

120905.39,502

120920.18,501

120920.18,502

120920.18,503

120920.18,503

120920.18,502

120920.18,501

120920.18,501

120920.18,502

120920.18,501

120920.18,501

120920.18,501

120920.18,500

120920.18,499

120979.85,500

120979.85,500

120979.85,500

120979.85,499

120979.85,498

120979.85,497

120979.85,497

120979.85,498

120979.85,498

120979.85,498

120979.85,497

120979.85,495

120979.85,495

120979.85,494

121026.24,495

121026.24,495

121026.24,494

121026.24,493

121026.24,492

121026.24,491

121026.24,491

121026.24,491

121026.24,491

121026.24,490

121026.24,489

121026.24,488

121026.24,488

121062.64,488

121062.64,488

121062.64,487

121062.64,486

121062.64,486

121062.64,485

121062.64,486

121062.64,486

121062.64,486

121062.64,486

121062.64,486

121062.64,486

121062.64,488

121129.14,489

121129.14,491

121129.14,493

121129.14,495

121129.14,497

121129.14,500

121129.14,504

121129.14,509

121129.14,513

121129.14,518

121129.14,522

121129.14,527

121129.14,533

121142.42,539

121142.42,545

121142.42,551

121142.42,557

121142.42,563

121142.42,569

121142.42,576

121142.42,583

121142.42,590

121142.42,595

121142.42,601

121142.42,606

121142.42,611

121172.35,616

121172.35,622

121172.35,625

121172.35,629

121172.35,631

121172.35,633

121172.35,636

121172.35,638

121172.35,639

121172.35,639

121172.35,639

121172.35,638

121172.35,637

121172.35,636

121202.28,635

121202.28,632

121202.28,629

121202.28,624

121202.28,621

121202.28,616

121202.28,613

121202.28,609

121202.28,604

121202.28,598

121202.28,592

121202.28,586

121202.28,582

121231.38,576

121231.38,570

121231.38,564

121231.38,556

121231.38,550

121231.38,544

121231.38,539

121231.38,534

121231.38,528

121231.38,522

121231.38,515

121231.38,510

121231.38,505

121234.69,501

121234.69,496

121234.69,491

121234.69,486

121234.69,482

121234.69,477

121234.69,474

121234.69,471

121234.69,467

121234.69,464

121234.69,460

121234.69,458

121234.69,455

121275.10,454

121275.10,451

121275.10,450

121275.10,448

121275.10,446

121275.10,445

121275.10,445

121275.10,444

121275.10,445

121275.10,443

121275.10,444

121275.10,444

121275.10,444

121314.99,446

121314.99,448

121314.99,449

121314.99,449

121314.99,450

121314.99,452

121314.99,455

121314.99,457

121314.99,460

121314.99,462

121314.99,465

121314.99,467

121314.99,470

121314.99,474

121349.24,477

121349.24,480

121349.24,483

121349.24,486

121349.24,489

121349.24,493

121349.24,496

121349.24,500

121349.24,503

121349.24,506

121349.24,509

121349.24,512

121349.24,515

121363.38,519

121363.38,521

121363.38,522

121363.38,523

121363.38,526

121363.38,528

121363.38,530

121363.38,531

121363.38,532

121363.38,532

121363.38,533

121363.38,534

121363.38,534

121364.37,535

121364.37,535

121364.37,534

121364.37,534

121364.37,532

121364.37,532

121364.37,531

121364.37,531

121364.37,529

121364.37,527

121364.37,526

121364.37,524

121364.37,523

121358.05,521

121358.05,520

121358.05,517

121358.05,515

121358.05,513

121358.05,511

121358.05,509

121358.05,508

121358.05,505

121358.05,503

121358.05,500

121358.05,499

121358.05,497

121358.05,496

121373.35,494

121373.35,492

121373.35,489

121373.35,487

121373.35,485

121373.35,484

121373.35,483

121373.35,481

121373.35,479

121373.35,478

121373.35,477

121373.35,476

121373.35,475

121404.10,474

121404.10,474

121404.10,472

121404.10,471

121404.10,470

121404.10,470

121404.10,470

121404.10,469

121404.10,469

121404.10,468

121404.10,469

121404.10,469

121404.10,470

121411.92,469

121411.92,469

121411.92,469

121411.92,469

121411.92,469

121411.92,470

121411.92,471

121411.92,471

121411.92,471

121411.92,472

121411.92,472

121411.92,473

121411.92,475

121378.50,476

121378.50,477

121378.50,477

121378.50,478

121378.50,480

121378.50,480

121378.50,481

121378.50,482

121378.50,483

121378.50,483

121378.50,485

121378.50,486

121378.50,488

121275.26,489

121275.26,490

121275.26,489

121275.26,490

121275.26,492

121275.26,493

121275.26,495

121275.26,495

121275.26,496

121275.26,497

121275.26,497

121275.26,498

121275.26,499

121216.74,499

121216.74,500

121216.74,501

121216.74,501

121216.74,502

121216.74,502

121216.74,503

121216.74,504

121216.74,504

121216.74,503

121216.74,504

121216.74,504

121216.74,505

121216.74,506

121218.57,506

121218.57,505

121218.57,504

121218.57,505

121218.57,506

121218.57,505

121218.57,505

121218.57,504

121218.57,503

121218.57,503

121218.57,503

121218.57,503

121218.57,503

121221.07,502

121221.07,501

121221.07,500

121221.07,500

121221.07,499

121221.07,500

121221.07,499

121221.07,497

121221.07,496

121221.07,495

121221.07,495

121221.07,495

121221.07,495

121258.80,494

121258.80,492

121258.80,492

121258.80,490

121258.80,492

121258.80,492

121258.80,492

121258.80,492

121258.80,492

121258.80,493

121258.80,494

121258.80,496

121258.80,497

121258.96,499

121258.96,501

121258.96,503

121258.96,507

121258.96,511

121258.96,515

121258.96,520

121258.96,524

121258.96,528

121258.96,533

121258.96,538

121258.96,545

121258.96,550

121258.96,556

121238.02,561

121238.02,567

121238.02,572

121238.02,579

121238.02,584

121238.02,591

121238.02,595

121238.02,600

121238.02,604

121238.02,609

121238.02,614

121238.02,618

121238.02,621

121235.19,623

121235.19,625

121235.19,627

121235.19,628

121235.19,629

121235.19,630

121235.19,631

121235.19,629

121235.19,628

121235.19,626

121235.19,624

121235.19,623

121235.19,620

121182.83,617

121182.83,612

121182.83,609

121182.83,605

121182.83,601

121182.83,596

121182.83,591

121182.83,585

121182.83,580

121182.83,575

121182.83,569

121182.83,564

121182.83,559

121134.78,553

121134.78,547

121134.78,542

121134.78,536

121134.78,531

121134.78,526

121134.78,521

121134.78,515

121134.78,509

121134.78,504

121134.78,500

121134.78,496

121134.78,491

121079.76,486

121079.76,482

121079.76,476

121079.76,474

121079.76,471

121079.76,467

121079.76,465

121079.76,461

121079.76,458

121079.76,455

121079.76,453

121079.76,452

121079.76,450

121079.76,449

121040.69,448

121040.69,446

121040.69,446

121040.69,445

121040.69,445

121040.69,446

121040.69,445

121040.69,445

121040.69,446

121040.69,447

121040.69,449

121040.69,451

121040.69,452

120992.66,452

120992.66,454

120992.66,457

120992.66,459

120992.66,463

120992.66,465

120992.66,467

120992.66,470

120992.66,473

120992.66,477

120992.66,480

120992.66,483

120992.66,487

120970.71,489

120970.71,492

120970.71,496

120970.71,500

120970.71,503

120970.71,507

120970.71,508

120970.71,511

120970.71,514

120970.71,517

120970.71,520

120970.71,523

120970.71,524

120927.16,525

120927.16,526

120927.16,528

120927.16,530

120927.16,532

120927.16,533

120927.16,533

120927.16,533

120927.16,533

120927.16,534

120927.16,534

120927.16,534

120927.16,534

120898.41,532

120898.41,532

120898.41,530

120898.41,530

120898.41,529

120898.41,527

120898.41,526

120898.41,523

120898.41,521

120898.41,520

120898.41,519

120898.41,517

120898.41,514

120898.41,512

120864.66,509

120864.66,507

120864.66,506

120864.66,504

120864.66,502

120864.66,500

120864.66,497

120864.66,495

120864.66,493

120864.66,491

120864.66,491

120864.66,487

120864.66,486

120837.57,483

120837.57,481

120837.57,481

120837.57,479

120837.57,478

120837.57,476

120837.57,475

120837.57,472

120837.57,472

120837.57,472

120837.57,471

120837.57,470

120837.57,468

120810.97,467

120810.97,467

120810.97,467

120810.97,467

120810.97,466

120810.97,466

120810.97,466

120810.97,466

120810.97,466

120810.97,467

120810.97,466

120810.97,467

120810.97,467

120797.50,467

120797.50,467

120797.50,469

120797.50,470

120797.50,471

120797.50,472

120797.50,471

120797.50,472

120797.50,473

120797.50,475

120797.50,477

120797.50,477

120797.50,478

120780.22,478

120780.22,479

120780.22,481

120780.22,483

120780.22,483

120780.22,484

120780.22,484

120780.22,485

120780.22,486

120780.22,488

120780.22,490

120780.22,491

120780.22,492

120780.22,492

120752.79,493

120752.79,494

120752.79,496

120752.79,497

120752.79,497

120752.79,497

120752.79,498

120752.79,499

120752.79,500

120752.79,503

120752.79,502

120752.79,502

120752.79,502

120729.53,503

120729.53,504

120729.53,504

120729.53,505

120729.53,505

120729.53,505

120729.53,504

120729.53,505

120729.53,506

120729.53,506

120729.53,506

120729.53,505

120729.53,505

120707.58,505

120707.58,505

120707.58,505

120707.58,505

120707.58,504

120707.58,502

120707.58,502

120707.58,502

120707.58,502

120707.58,501

120707.58,501

120707.58,500

120707.58,499

120698.94,498

120698.94,497

120698.94,497

120698.94,497

120698.94,495

120698.94,495

120698.94,494

120698.94,493

120698.94,493

120698.94,493

120698.94,493

120698.94,494

120698.94,494

120709.25,494

120709.25,496

120709.25,498

120709.25,500

120709.25,503

120709.25,504

120709.25,506

120709.25,511

120709.25,515

120709.25,520

120709.25,524

120709.25,530

120709.25,535

120709.25,539

120700.94,546

120700.94,553

120700.94,560

120700.94,566

120700.94,573

120700.94,579

120700.94,586

120700.94,593

120700.94,598

120700.94,606

120700.94,611

120700.94,616

120700.94,621

120694.78,625

120694.78,630

120694.78,635

120694.78,638

120694.78,641

120694.78,643

120694.78,645

120694.78,646

120694.78,647

120694.78,648

120694.78,648

120694.78,646

120694.78,644

120657.89,643

120657.89,642

120657.89,639

120657.89,636

120657.89,632

120657.89,628

120657.89,624

120657.89,620

120657.89,615

120657.89,611

120657.89,606

120657.89,599

120657.89,593

120638.94,587

120638.94,582

120638.94,577

120638.94,571

120638.94,563

120638.94,558

120638.94,551

120638.94,545

120638.94,540

120638.94,535

120638.94,528

120638.94,523

120638.94,517

120602.03,512

120602.03,507

120602.03,503

120602.03,498

120602.03,493

120602.03,489

120602.03,484

120602.03,482

120602.03,478

120602.03,476

120602.03,472

120602.03,469

120602.03,466

120602.03,463

120568.46,462

120568.46,461

120568.46,459

120568.46,457

120568.46,456

120568.46,455

120568.46,454

120568.46,453

120568.46,454

120568.46,453

120568.46,453

120568.46,453

120568.46,454

120565.14,455

120565.14,457

120565.14,458

120565.14,458

120565.14,460

120565.14,462

120565.14,463

120565.14,466

120565.14,468

120565.14,471

120565.14,472

120565.14,474

120565.14,476

120545.36,480

120545.36,483

120545.36,485

120545.36,487

120545.36,489

120545.36,491

120545.36,494

120545.36,497

120545.36,500

120545.36,503

120545.36,505

120545.36,506

120545.36,509

120517.28,512

120517.28,513

120517.28,516

120517.28,517

120517.28,518

120517.28,518

120517.28,520

120517.28,521

120517.28,523

120517.28,523

120517.28,523

120517.28,524

120517.28,524

120495.67,524

120495.67,525

120495.67,525

120495.67,523

120495.67,523

120495.67,522

120495.67,521

120495.67,521

120495.67,520

120495.67,519

120495.67,517

120495.67,515

120495.67,513

120495.67,513

120492.18,512

120492.18,510

120492.18,508

120492.18,506

120492.18,504

120492.18,503

120492.18,502

120492.18,501

120492.18,497

120492.18,496

120492.18,494

120492.18,492

120492.18,490

120484.86,489

120484.86,488

120484.86,486

120484.86,485

120484.86,482

120484.86,481

120484.86,480

120484.86,479

120484.86,479

120484.86,478

120484.86,475

120484.86,475

120484.86,474

120471.91,473

120471.91,474

120471.91,472

120471.91,471

120471.91,470

120471.91,470

120471.91,469

120471.91,470

120471.91,470

120471.91,470

120471.91,468

120471.91,468

120471.91,469

120445.47,469

120445.47,471

120445.47,470

120445.47,470

120445.47,470

120445.47,470

120445.47,471

120445.47,472

120445.47,473

120445.47,474

120445.47,474

120445.47,474

120445.47,475

120445.47,476

120429.35,477

120429.35,478

120429.35,479

120429.35,479

120429.35,480

120429.35,481

120429.35,483

120429.35,484

120429.35,484

120429.35,485

120429.35,485

120429.35,486

120429.35,488

120423.21,489

120423.21,490

120423.21,490

120423.21,490

120423.21,491

120423.21,492

120423.21,494

120423.21,495

120423.21,496

120423.21,496

120423.21,495

120423.21,496

120423.21,498

120404.26,499

120404.26,500

120404.26,499

120404.26,500

120404.26,500

120404.26,501

120404.26,502

120404.26,502

120404.26,502

120404.26,502

120404.26,502

120404.26,502

120404.26,503

120381.32,503

120381.32,503

120381.32,503

120381.32,502

120381.32,502

120381.32,501

120381.32,502

120381.32,502

120381.32,501

120381.32,500

120381.32,500

120381.32,499

120381.32,499

120354.90,499

120354.90,499

120354.90,499

120354.90,497

120354.90,496

120354.90,496

120354.90,496

120354.90,496

120354.90,495

120354.90,494

120354.90,493

120354.90,492

120354.90,492

120354.90,491

120382.49,491

120382.49,491

120382.49,490

120382.49,489

120382.49,490

120382.49,491

120382.49,493

120382.49,493

120382.49,494

120382.49,496

120382.49,497

120382.49,500

120382.49,503

120421.38,507

120421.38,510

120421.38,514

120421.38,518

120421.38,523

120421.38,528

120421.38,535

120421.38,541

120421.38,546

120421.38,553

120421.38,559

120421.38,565

120421.38,573

120422.21,580

120422.21,587

120422.21,593

120422.21,598

120422.21,604

120422.21,611

120422.21,617

120422.21,623

120422.21,627

120422.21,631

120422.21,634

120422.21,638

120422.21,642

120420.88,644

120420.88,646

120420.88,647

120420.88,647

120420.88,648

120420.88,649

120420.88,648

120420.88,647

120420.88,646

120420.88,643

120420.88,640

120420.88,638

120420.88,635

120398.78,631

120398.78,627

120398.78,622

120398.78,617

120398.78,612

120398.78,607

120398.78,602

120398.78,596

120398.78,591

120398.78,584

120398.78,578

120398.78,572

120398.78,567

120398.78,562

120387.31,556

120387.31,549

120387.31,542

120387.31,537

120387.31,533

120387.31,527

120387.31,523

120387.31,517

120387.31,512

120387.31,507

120387.31,503

120387.31,499

120387.31,496

120367.86,492

120367.86,487

120367.86,484

120367.86,480

120367.86,478

120367.86,476

120367.86,474

120367.86,471

120367.86,468

120367.86,466

120367.86,465

120367.86,465

120367.86,464

120341.94,462

120341.94,461

120341.94,460

120341.94,460

120341.94,460

120341.94,460

120341.94,461

120341.94,460

120341.94,461

120341.94,461

120341.94,462

120341.94,464

120341.94,465

120340.61,467

120340.61,468

120340.61,469

120340.61,470

120340.61,472

120340.61,475

120340.61,477

120340.61,479

120340.61,481

120340.61,483

120340.61,485

120340.61,488

120340.61,491

120337.78,492

120337.78,494

120337.78,496

120337.78,498

120337.78,500

120337.78,503

120337.78,505

120337.78,507

120337.78,507

120337.78,509

120337.78,510

120337.78,512

120337.78,514

120337.78,516

120327.97,515

120327.97,516

120327.97,517

120327.97,518

120327.97,519

120327.97,520

120327.97,521

120327.97,520

120327.97,520

120327.97,519

120327.97,519

120327.97,520

120327.97,519

120309.19,519

120309.19,517

120309.19,516

120309.19,516

120309.19,515

120309.19,514

120309.19,513

120309.19,510

120309.19,509

120309.19,508

120309.19,507

120309.19,506

120309.19,504

120313.19,503

120313.19,501

120313.19,499

120313.19,498

120313.19,497

120313.19,495

120313.19,494

120313.19,491

120313.19,489

120313.19,487

120313.19,487

120313.19,485

120313.19,485

120301.89,484

120301.89,482

120301.89,479

120301.89,478

120301.89,478

120301.89,478

120301.89,477

120301.89,476

120301.89,475

120301.89,474

120301.89,474

120301.89,474

120301.89,473

120301.89,472

120301.89,471

120301.89,470

120301.89,471

120301.89,471

120301.89,472

120301.89,471

120301.89,471

120301.89,470

120301.89,471

120301.89,471

120301.89,473

120301.89,474

120301.89,474

120292.75,472

120292.75,473

120292.75,475

120292.75,475

120292.75,476

120292.75,477

120292.75,478

120292.75,477

120292.75,478

120292.75,480

120292.75,481

120292.75,482

120292.75,483

120247.04,484

120247.04,484

120247.04,485

120247.04,486

120247.04,487

120247.04,488

120247.04,489

120247.04,488

120247.04,489

120247.04,490

120247.04,491

120247.04,492

120247.04,493

120256.35,493

120256.35,493

120256.35,494

120256.35,495

120256.35,496

120256.35,496

120256.35,497

120256.35,497

120256.35,498

120256.35,498

120256.35,499

120256.35,500

120256.35,500

120248.71,500

120248.71,500

120248.71,500

120248.71,500

120248.71,501

120248.71,502

120248.71,501

120248.71,501

120248.71,500

120248.71,500

120248.71,500

120248.71,501

120248.71,501

120248.71,500

120213.81,500

120213.81,500

120213.81,499

120213.81,500

120213.81,499

120213.81,499

120213.81,498

120213.81,497

120213.81,497

120213.81,497

120213.81,497

120213.81,497

120213.81,496

120178.24,495

120178.24,494

120178.24,494

120178.24,495

120178.24,494

120178.24,493

120178.24,492

120178.24,491

120178.24,491

120178.24,490

120178.24,490

120178.24,490

120178.24,489

120153.64,489

120153.64,488

120153.64,487

120153.64,488

120153.64,487

120153.64,486

120153.64,486

120153.64,485

120153.64,485

120153.64,485

120153.64,486

120153.64,486

120153.64,487

120145.34,486

120145.34,487

120145.34,488

120145.34,490

120145.34,492

120145.34,495

120145.34,497

120145.34,500

120145.34,503

120145.34,508

120145.34,512

120145.34,516

120145.34,522

120142.35,526

120142.35,532

120142.35,538

120142.35,544

120142.35,551

120142.35,557

120142.35,564

120142.35,569

120142.35,576

120142.35,583

120142.35,591

120142.35,597

120142.35,603

120142.35,609

120147.33,613

120147.33,619

120147.33,624

120147.33,629

120147.33,633

120147.33,636

120147.33,638

120147.33,641

120147.33,643

120147.33,644

120147.33,646

120147.33,646

120147.33,644

120126.56,644

120126.56,643

120126.56,642

120126.56,640

120126.56,637

120126.56,634

120126.56,630

120126.56,626

120126.56,622

120126.56,618

120126.56,613

120126.56,608

120126.56,602

120085.17,596

120085.17,590

120085.17,585

120085.17,579

120085.17,574

120085.17,567

120085.17,561

120085.17,554

120085.17,549

120085.17,544

120085.17,538

120085.17,533

120085.17,527

120076.04,521

120076.04,516

120076.04,512

120076.04,507

120076.04,503

120076.04,499

120076.04,493

120076.04,489

120076.04,486

120076.04,483

120076.04,480

120076.04,478

120076.04,474

120076.04,470

120059.42,468

120059.42,467

120059.42,465

120059.42,464

120059.42,462

120059.42,460

120059.42,459

120059.42,457

120059.42,457

120059.42,458

120059.42,457

120059.42,456

120059.42,457

120060.92,457

120060.92,458

120060.92,459

120060.92,460

120060.92,461

120060.92,462

120060.92,463

120060.92,464

120060.92,466

120060.92,468

120060.92,470

120060.92,471

120060.92,472

120068.57,475

120068.57,477

120068.57,480

120068.57,483

120068.57,484

120068.57,487

120068.57,489

120068.57,491

120068.57,494

120068.57,496

120068.57,498

120068.57,500

120068.57,502

120075.54,503

120075.54,505

120075.54,508

120075.54,510

120075.54,511

120075.54,513

120075.54,514

120075.54,515

120075.54,517

120075.54,518

120075.54,520

120075.54,520

120075.54,519

120080.86,520

120080.86,519

120080.86,520

120080.86,521

120080.86,520

120080.86,520

120080.86,518

120080.86,518

120080.86,518

120080.86,517

120080.86,516

120080.86,516

120080.86,515

120080.86,513

120113.43,512

120113.43,511

120113.43,510

120113.43,509

120113.43,507

120113.43,505

120113.43,504

120113.43,502

120113.43,501

120113.43,499

120113.43,497

120113.43,495

120113.43,494

120100.14,492

120100.14,491

120100.14,491

120100.14,488

120100.14,486

120100.14,485

120100.14,483

120100.14,482

120100.14,482

120100.14,481

120100.14,480

120100.14,478

120100.14,476

120111.77,476

120111.77,476

120111.77,475

120111.77,475

120111.77,473

120111.77,472

120111.77,472

120111.77,472

120111.77,472

120111.77,471

120111.77,471

120111.77,471

120111.77,470

120099.47,470

120099.47,471

120099.47,471

120099.47,471

120099.47,470

120099.47,471

120099.47,471

120099.47,472

120099.47,473

120099.47,473

120099.47,474

120099.47,474

120099.47,473

120069.39,474

120069.39,475

120069.39,477

120069.39,477

120069.39,478

120069.39,477

120069.39,477

120069.39,479

120069.39,480

120069.39,481

120069.39,482

120069.39,482

120069.39,483

120069.39,484

120054.44,485

120054.44,486

120054.44,487

120054.44,487

120054.44,488

120054.44,487

120054.44,489

120054.44,490

120054.44,491

120054.44,492

120054.44,492

120054.44,492

120054.44,493

120069.22,493

120069.22,495

120069.22,495

120069.22,495

120069.22,495

120069.22,495

120069.22,495

120069.22,496

120069.22,497

120069.22,497

120069.22,497

120069.22,496

120069.22,496

120035.33,497

120035.33,497

120035.33,498

120035.33,497

120035.33,496

120035.33,496

120035.33,496

120035.33,497

120035.33,497

120035.33,496

120035.33,495

120035.33,495

120035.33,494

120024.53,495

120024.53,495

120024.53,495

120024.53,495

120024.53,494

120024.53,494

120024.53,493

120024.53,493

120024.53,494

120024.53,493

120024.53,493

120024.53,492

120024.53,491

120024.53,491

120021.21,492

120021.21,491

120021.21,491

120021.21,490

120021.21,489

120021.21,489

120021.21,490

120021.21,489

120021.21,489

120021.21,489

120021.21,487

120021.21,487

120021.21,487

120014.56,487

120014.56,488

120014.56,487

120014.56,487

120014.56,486

120014.56,485

120014.56,485

120014.56,486

120014.56,486

120014.56,485

120014.56,484

120014.56,484

120014.56,484

119978.50,484

119978.50,484

119978.50,484

119978.50,483

119978.50,482

119978.50,482

119978.50,483

119978.50,483

119978.50,483

119978.50,482

119978.50,481

119978.50,481

119978.50,481

119998.60,481

119998.60,483

119998.60,482

119998.60,482

119998.60,482

119998.60,483

119998.60,483

119998.60,485

119998.60,487

119998.60,487

119998.60,489

119998.60,491

119998.60,492

119998.60,496

120043.14,500

120043.14,503

120043.14,505

120043.14,510

120043.14,514

120043.14,519

120043.14,526

120043.14,531

120043.14,537

120043.14,543

120043.14,549

120043.14,554

120043.14,562

120086.17,569

120086.17,575

120086.17,582

120086.17,589

120086.17,594

120086.17,601

120086.17,607

120086.17,612

120086.17,618

120086.17,622

120086.17,625

120086.17,630

120086.17,633

120133.21,636

120133.21,640

120133.21,641

120133.21,642

120133.21,643

120133.21,643

120133.21,644

120133.21,643

120133.21,642

120133.21,639

120133.21,637

120133.21,634

120133.21,632

120124.89,629

120124.89,624

120124.89,620

120124.89,615

120124.89,611

120124.89,605

120124.89,601

120124.89,595

120124.89,589

120124.89,582

120124.89,576

120124.89,570

120124.89,564

120149.49,559

120149.49,553

120149.49,547

120149.49,539

120149.49,534

120149.49,528

120149.49,523

120149.49,518

120149.49,513

120149.49,506

120149.49,502

120149.49,497

120149.49,493

120149.49,489

120110.44,485

120110.44,481

120110.44,477

120110.44,473

120110.44,470

120110.44,467

120110.44,466

120110.44,463

120110.44,460

120110.44,458

120110.44,455

120110.44,455

120110.44,454

120105.96,453

120105.96,452

120105.96,451

120105.96,450

120105.96,451

120105.96,451

120105.96,451

120105.96,451

120105.96,452

120105.96,453

120105.96,454

120105.96,455

120105.96,458

120109.61,459

120109.61,461

120109.61,462

120109.61,464

120109.61,467

120109.61,469

120109.61,472

120109.61,475

120109.61,477

120109.61,479

120109.61,481

120109.61,484

120109.61,487

120121.07,490

120121.07,493

120121.07,494

120121.07,496

120121.07,499

120121.07,502

120121.07,505

120121.07,507

120121.07,509

120121.07,510

120121.07,512

120121.07,514

120121.07,515

120121.41,518

120121.41,519

120121.41,520

120121.41,520

120121.41,521

120121.41,522

120121.41,524

120121.41,525

120121.41,524

120121.41,524

120121.41,523

120121.41,523

120121.41,523

120121.41,523

120147.00,523

120147.00,522

120147.00,521

120147.00,520

120147.00,520

120147.00,519

120147.00,517

120147.00,516

120147.00,513

120147.00,512

120147.00,510

120147.00,509

120147.00,508

120137.36,506

120137.36,504

120137.36,502

120137.36,500

120137.36,497

120137.36,497

120137.36,496

120137.36,494

120137.36,491

120137.36,489

120137.36,487

120137.36,485

120137.36,485

120135.03,484

120135.03,481

120135.03,480

120135.03,479

120135.03,477

120135.03,476

120135.03,475

120135.03,475

120135.03,473

120135.03,472

120135.03,471

120135.03,470

120135.03,470

120125.39,470

120125.39,469

120125.39,468

120125.39,467

120125.39,467

120125.39,467

120125.39,468

120125.39,468

120125.39,467

120125.39,467

120125.39,466

120125.39,468

120125.39,468

120125.39,469

120106.78,469

120106.78,469

120106.78,469

120106.78,470

120106.78,470

120106.78,472

120106.78,473

120106.78,473

120106.78,473

120106.78,474

120106.78,475

120106.78,476

120106.78,478

120086.35,478

120086.35,478

120086.35,479

120086.35,480

120086.35,481

120086.35,482

120086.35,483

120086.35,484

120086.35,484

120086.35,485

120086.35,486

120086.35,486

120086.35,488

120082.02,489

120082.02,488

120082.02,489

120082.02,489

120082.02,490

120082.02,491

120082.02,492

120082.02,492

120082.02,492

120082.02,492

120082.02,492

120082.02,494

120082.02,494

120084.85,494

120084.85,495

120084.85,494

120084.85,494

120084.85,495

120084.85,496

120084.85,496

120084.85,496

120084.85,495

120084.85,495

120084.85,495

120084.85,496

120084.85,496

120108.11,497

120108.11,496

120108.11,496

120108.11,495

120108.11,495

120108.11,496

120108.11,496

120108.11,495

120108.11,494

120108.11,494

120108.11,494

120108.11,494

120108.11,494

120108.11,494

120112.77,493

120112.77,492

120112.77,492

120112.77,492

120112.77,492

120112.77,492

120112.77,492

120112.77,490

120112.77,489

120112.77,490

120112.77,490

120112.77,490

120112.77,489

120108.61,488

120108.61,488

120108.61,488

120108.61,487

120108.61,487

120108.61,487

120108.61,487

120108.61,486

120108.61,486

120108.61,486

120108.61,486

120108.61,486

120108.61,486

120112.93,485

120112.93,485

120112.93,483

120112.93,484

120112.93,484

120112.93,484

120112.93,484

120112.93,483

120112.93,483

120112.93,483

120112.93,484

120112.93,484

120112.93,483

120118.75,483

120118.75,483

120118.75,482

120118.75,483

120118.75,483

120118.75,483

120118.75,482

120118.75,482

120118.75,482

120118.75,482

120118.75,483

120118.75,483

120118.75,483

120097.14,482

120097.14,482

120097.14,482

120097.14,482

120097.14,482

120097.14,483

120097.14,482

120097.14,483

120097.14,482

120097.14,482

120097.14,483

120097.14,485

120097.14,484

120097.14,483

120128.55,483

120128.55,483

120128.55,483

120128.55,484

120128.55,485

120128.55,485

120128.55,484

120128.55,484

120128.55,485

120128.55,487

120128.55,487

120128.55,489

120128.55,490

120191.71,491

120191.71,493

120191.71,496

120191.71,499

120191.71,502

120191.71,505

120191.71,508

120191.71,512

120191.71,516

120191.71,521

120191.71,527

120191.71,532

120191.71,538

120205.50,543

120205.50,549

120205.50,556

120205.50,563

120205.50,570

120205.50,577

120205.50,582

120205.50,588

120205.50,595

120205.50,600

120205.50,607

120205.50,613

120205.50,618

120224.27,623

120224.27,626

120224.27,631

120224.27,634

120224.27,638

120224.27,641

120224.27,643

120224.27,643

120224.27,645

120224.27,646

120224.27,647

120224.27,646

120224.27,645

120218.13,642

120218.13,640

120218.13,638

120218.13,636

120218.13,633

120218.13,629

120218.13,625

120218.13,620

120218.13,615

120218.13,611

120218.13,606

120218.13,601

120218.13,596

120218.13,590

120212.64,583

120212.64,577

120212.64,572

120212.64,567

120212.64,560

120212.64,554

120212.64,548

120212.64,542

120212.64,536

120212.64,530

120212.64,525

120212.64,519

120212.64,512

120141.85,507

120141.85,502

120141.85,498

120141.85,493

120141.85,489

120141.85,485

120141.85,481

120141.85,477

120141.85,473

120141.85,470

120141.85,467

120141.85,464

120141.85,461

120095.82,459

120095.82,456

120095.82,455

120095.82,455

120095.82,452

120095.82,451

120095.82,449

120095.82,449

120095.82,449

120095.82,449

120095.82,449

120095.82,449

120095.82,448

120108.95,448

120108.95,450

120108.95,452

120108.95,453

120108.95,455

120108.95,456

120108.95,457

120108.95,459

120108.95,461

120108.95,464

120108.95,468

120108.95,470

120108.95,472

120108.95,474

120108.11,477

120108.11,480

120108.11,484

120108.11,486

120108.11,489

120108.11,492

120108.11,494

120108.11,497

120108.11,501

120108.11,503

120108.11,507

120108.11,508

120108.11,511

120123.57,513

120123.57,516

120123.57,518

120123.57,521

120123.57,522

120123.57,523

120123.57,524

120123.57,526

120123.57,527

120123.57,528

120123.57,529

120123.57,529

120123.57,529

120179.90,529

120179.90,530

120179.90,531

120179.90,530

120179.90,530

120179.90,529

120179.90,527

120179.90,526

120179.90,526

120179.90,526

120179.90,524

120179.90,524

120179.90,520

120188.55,519

120188.55,518

120188.55,516

120188.55,515

120188.55,513

120188.55,510

120188.55,507

120188.55,506

120188.55,503

120188.55,502

120188.55,500

120188.55,499

120188.55,496

120212.14,494

120212.14,492

120212.14,490

120212.14,489

120212.14,487

120212.14,485

120212.14,483

120212.14,480

120212.14,480

120212.14,478

120212.14,477

120212.14,476

120212.14,474

120212.14,473

120189.04,472

120189.04,471

120189.04,472

120189.04,470

120189.04,469

120189.04,468

120189.04,467

120189.04,467

120189.04,466

120189.04,467

120189.04,466

120189.04,465

120189.04,464

120159.80,465

120159.80,465

120159.80,467

120159.80,467

120159.80,466

120159.80,467

120159.80,467

120159.80,467

120159.80,469

120159.80,470

120159.80,470

120159.80,470

120159.80,470

120118.08,471

120118.08,472

120118.08,473

120118.08,474

120118.08,475

120118.08,476

120118.08,475

120118.08,476

120118.08,479

120118.08,480

120118.08,480

120118.08,480

120118.08,481

120031.34,482

120031.34,483

120031.34,485

120031.34,486

120031.34,486

120031.34,487

120031.34,487

120031.34,488

120031.34,489

120031.34,490

120031.34,490

120031.34,491

120031.34,491

120031.34,492

119930.47,493

119930.47,494

119930.47,495

119930.47,495

119930.47,495

119930.47,495

119930.47,495

119930.47,495

119930.47,497

119930.47,497

119930.47,496

119930.47,497

119930.47,497

119869.66,498

119869.66,498

119869.66,498

119869.66,498

119869.66,497

119869.66,497

119869.66,496

119869.66,497

119869.66,498

119869.66,496

119869.66,496

119869.66,496

119869.66,495

119879.29,496

119879.29,496

119879.29,496

119879.29,496

119879.29,495

119879.29,494

119879.29,494

119879.29,495

119879.29,495

119879.29,494

119879.29,494

119879.29,493

119879.29,492

119858.36,493

119858.36,493

119858.36,493

119858.36,492

119858.36,491

119858.36,490

119858.36,489

119858.36,490

119858.36,490

119858.36,489

119858.36,489

119858.36,488

119858.36,487

119890.10,488

119890.10,488

119890.10,488

119890.10,488

119890.10,487

119890.10,486

119890.10,486

119890.10,486

119890.10,486

119890.10,486

119890.10,485

119890.10,485

119890.10,484

119890.10,484

119891.75,485

119891.75,485

119891.75,485

119891.75,484

119891.75,483

119891.75,482

119891.75,483

119891.75,484

119891.75,483

119891.75,483

119891.75,482

119891.75,481

119891.75,482

119911.53,483

119911.53,483

119911.53,483

119911.53,482

119911.53,481

119911.53,481

119911.53,481

119911.53,482

119911.53,482

119911.53,481

119911.53,482

119911.53,482

119911.53,483

119960.22,483

119960.22,484

119960.22,485

119960.22,485

119960.22,486

119960.22,488

119960.22,491

119960.22,493

119960.22,496

119960.22,499

119960.22,503

119960.22,505

119960.22,511

120011.39,516

120011.39,522

120011.39,526

120011.39,532

120011.39,537

120011.39,544

120011.39,550

120011.39,557

120011.39,564

120011.39,570

120011.39,577

120011.39,584

120011.39,590

120043.14,598

120043.14,604

120043.14,610

120043.14,615

120043.14,621

120043.14,625

120043.14,630

120043.14,636

120043.14,640

120043.14,643

120043.14,645

120043.14,647

120043.14,649

120043.14,651

120041.14,652

120041.14,652

120041.14,652

120041.14,651

120041.14,650

120041.14,648

120041.14,646

120041.14,644

120041.14,641

120041.14,637

120041.14,633

120041.14,628

120041.14,625

119997.94,620

119997.94,615

119997.94,610

119997.94,603

119997.94,597

119997.94,591

119997.94,586

119997.94,580

119997.94,573

119997.94,566

119997.94,559

119997.94,553

119997.94,547

119971.52,542

119971.52,536

119971.52,529

119971.52,524

119971.52,518

119971.52,512

119971.52,508

119971.52,503

119971.52,499

119971.52,494

119971.52,487

119971.52,484

119971.52,480

119955.39,477

119955.39,474

119955.39,471

119955.39,467

119955.39,463

119955.39,461

119955.39,459

119955.39,457

119955.39,456

119955.39,453

119955.39,452

119955.39,450

119955.39,449

119956.73,450

119956.73,449

119956.73,448

119956.73,448

119956.73,447

119956.73,448

119956.73,450

119956.73,451

119956.73,452

119956.73,453

119956.73,454

119956.73,455

119956.73,457

119956.73,459

119977.83,463

119977.83,464

119977.83,466

119977.83,469

119977.83,471

119977.83,474

119977.83,477

119977.83,480

119977.83,483

119977.83,486

119977.83,488

119977.83,490

119977.83,495

120007.41,498

120007.41,501

120007.41,504

120007.41,506

120007.41,509

120007.41,512

120007.41,514

120007.41,518

120007.41,519

120007.41,520

120007.41,522

120007.41,525

120007.41,526

120017.55,528

120017.55,529

120017.55,530

120017.55,530

120017.55,530

120017.55,531

120017.55,531

120017.55,531

120017.55,531

120017.55,531

120017.55,530

120017.55,530

120017.55,530

120017.88,529

120017.88,529

120017.88,527

120017.88,525

120017.88,524

120017.88,523

120017.88,522

120017.88,520

120017.88,519

120017.88,516

120017.88,514

120017.88,513

120017.88,511

120002.26,510

120002.26,507

120002.26,505

120002.26,502

120002.26,500

120002.26,499

120002.26,497

120002.26,496

120002.26,493

120002.26,491

120002.26,488

120002.26,487

120002.26,486

120002.26,485

119947.59,483

119947.59,481

119947.59,479

119947.59,478

119947.59,477

119947.59,476

119947.59,476

119947.59,475

119947.59,472

119947.59,470

119947.59,470

119947.59,470

119947.59,470

119866.16,469

119866.16,467

119866.16,467

119866.16,467

119866.16,467

119866.16,467

119866.16,468

119866.16,467

119866.16,467

119866.16,467

119866.16,466

119866.16,468

119866.16,468

119793.72,468

119793.72,469

119793.72,469

119793.72,469

119793.72,470

119793.72,471

119793.72,473

119793.72,472

119793.72,472

119793.72,473

119793.72,474

119793.72,475

119793.72,476

119738.72,477

119738.72,478

119738.72,478

119738.72,479

119738.72,479

119738.72,481

119738.72,482

119738.72,482

119738.72,483

119738.72,483

119738.72,484

119738.72,486

119738.72,486

119738.72,488

119681.07,488

119681.07,489

119681.07,489

119681.07,490

119681.07,491

119681.07,492

119681.07,492

119681.07,493

119681.07,493

119681.07,493

119681.07,494

119681.07,495

119681.07,496

119670.75,496

119670.75,495

119670.75,495

119670.75,496

119670.75,496

119670.75,497

119670.75,497

119670.75,497

119670.75,497

119670.75,498

119670.75,497

119670.75,498

119670.75,499

119672.92,498

119672.92,498

119672.92,498

119672.92,498

119672.92,498

119672.92,499

119672.92,499

119672.92,498

119672.92,498

119672.92,497

119672.92,497

119672.92,498

119672.92,498

119717.61,497

119717.61,496

119717.61,495

119717.61,495

119717.61,494

119717.61,495

119717.61,494

119717.61,493

119717.61,493

119717.61,492

119717.61,492

119717.61,493

119717.61,493

119747.53,492

119747.53,491

119747.53,490

119747.53,489

119747.53,490

119747.53,491

119747.53,491

119747.53,489

119747.53,488

119747.53,488

119747.53,487

119747.53,488

119747.53,488

119747.53,488

119764.14,487

119764.14,486

119764.14,485

119764.14,486

119764.14,486

119764.14,485

119764.14,485

119764.14,484

119764.14,484

119764.14,484

119764.14,485

119764.14,485

119764.14,484

119793.22,483

119793.22,483

119793.22,482

119793.22,483

119793.22,483

119793.22,483

119793.22,483

119793.22,482

119793.22,481

119793.22,483

119793.22,483

119793.22,484

119793.22,485

119857.19,485

119857.19,486

119857.19,487

119857.19,488

119857.19,491

119857.19,493

119857.19,496

119857.19,498

119857.19,501

119857.19,505

119857.19,510

119857.19,515

119857.19,520

119908.04,525

119908.04,530

119908.04,536

119908.04,543

119908.04,549

119908.04,556

119908.04,563

119908.04,569

119908.04,575

119908.04,583

119908.04,590

119908.04,597

119908.04,604

119963.53,610

119963.53,616

119963.53,621

119963.53,626

119963.53,633

119963.53,638

119963.53,641

119963.53,644

119963.53,647

119963.53,650

119963.53,652

119963.53,654

119963.53,655

119963.53,655

119962.71,655

119962.71,654

119962.71,653

119962.71,653

119962.71,650

119962.71,647

119962.71,644

119962.71,640

119962.71,636

119962.71,632

119962.71,628

119962.71,623

119962.71,618

119966.03,613

119966.03,607

119966.03,600

119966.03,596

119966.03,590

119966.03,583

119966.03,577

119966.03,569

119966.03,563

119966.03,557

119966.03,551

119966.03,546

119966.03,539

119956.23,532

119956.23,527

119956.23,521

119956.23,516

119956.23,511

119956.23,506

119956.23,500

119956.23,495

119956.23,490

119956.23,486

119956.23,482

119956.23,478

119956.23,475

119949.75,471

119949.75,467

119949.75,464

119949.75,462

119949.75,460

119949.75,458

119949.75,456

119949.75,453

119949.75,451

119949.75,450

119949.75,449

119949.75,449

119949.75,447

119957.23,446

119957.23,447

119957.23,447

119957.23,448

119957.23,449

119957.23,450

119957.23,451

119957.23,451

119957.23,453

119957.23,454

119957.23,456

119957.23,459

119957.23,460

119957.23,463

119965.37,464

119965.37,466

119965.37,470

119965.37,473

119965.37,476

119965.37,478

119965.37,480

119965.37,483

119965.37,486

119965.37,490

119965.37,493

119965.37,496

119965.37,499

119977.33,501

119977.33,504

119977.33,507

119977.33,510

119977.33,512

119977.33,515

119977.33,516

119977.33,518

119977.33,521

119977.33,524

119977.33,526

119977.33,527

119977.33,528

119999.77,529

119999.77,530

119999.77,531

119999.77,533

119999.77,532

119999.77,533

119999.77,533

119999.77,533

119999.77,532

119999.77,532

119999.77,532

119999.77,531

119999.77,530

119989.63,529

119989.63,527

119989.63,527

119989.63,526

119989.63,525

119989.63,523

119989.63,521

119989.63,519

119989.63,517

119989.63,516

119989.63,514

119989.63,512

119989.63,510

120017.88,507

120017.88,505

120017.88,503

120017.88,502

120017.88,500

120017.88,498

120017.88,495

120017.88,493

120017.88,491

120017.88,490

120017.88,488

120017.88,487

120017.88,484

120017.88,482

120031.50,480

120031.50,479

120031.50,479

120031.50,477

120031.50,476

120031.50,474

120031.50,472

120031.50,471

120031.50,471

120031.50,470

120031.50,470

120031.50,468

120031.50,468

120012.39,466

120012.39,466

120012.39,466

120012.39,467

120012.39,465

120012.39,465

120012.39,465

120012.39,465

120012.39,466

120012.39,466

120012.39,466

120012.39,466

120012.39,466

120017.05,465

120017.05,466

120017.05,467

120017.05,468

120017.05,469

120017.05,468

120017.05,468

120017.05,469

120017.05,471

120017.05,471

120017.05,473

120017.05,474

120017.05,474

120027.52,475

120027.52,475

120027.52,476

120027.52,478

120027.52,479

120027.52,479

120027.52,479

120027.52,481

120027.52,482

120027.52,483

120027.52,484

120027.52,485

120027.52,485

120027.52,486

120029.67,487

120029.67,488

120029.67,489

120029.67,490

120029.67,489

120029.67,490

120029.67,491

120029.67,491

120029.67,493

120029.67,494

120029.67,494

120029.67,494

120029.67,494

120067.40,494

120067.40,495

120067.40,497

120067.40,497

120067.40,496

120067.40,496

120067.40,496

120067.40,497

120067.40,497

120067.40,498

120067.40,498

120067.40,497

120067.40,497

120110.44,497

120110.44,498

120110.44,498

120110.44,498

120110.44,498

120110.44,498

120110.44,497

120110.44,497

120110.44,497

120110.44,498

120110.44,497

120110.44,496

120110.44,495

120134.71,496

120134.71,495

120134.71,495

120134.71,494

120134.71,493

120134.71,494

120134.71,492

120134.71,492

120134.71,492

120134.71,492

120134.71,491

120134.71,491

120134.71,490

120153.98,490

120153.98,490

120153.98,490

120153.98,489

120153.98,489

120153.98,487

120153.98,486

120153.98,487

120153.98,487

120153.98,487

120153.98,487

120153.98,486

120153.98,486

120153.98,486

120133.21,486

120133.21,486

120133.21,485

120133.21,485

120133.21,484

120133.21,484

120133.21,483

120133.21,483

120133.21,483

120133.21,484

120133.21,482

120133.21,482

120133.21,482

120171.42,482

120171.42,482

120171.42,483

120171.42,483

120171.42,482

120171.42,482

120171.42,482

120171.42,483

120171.42,484

120171.42,485

120171.42,486

120171.42,486

120171.42,489

120234.91,491

120234.91,494

120234.91,497

120234.91,501

120234.91,503

120234.91,507

120234.91,511

120234.91,516

120234.91,522

120234.91,528

120234.91,534

120234.91,539

120234.91,545

120253.36,552

120253.36,559

120253.36,567

120253.36,574

120253.36,579

120253.36,586

120253.36,593

120253.36,599

120253.36,606

120253.36,613

120253.36,618

120253.36,622

120253.36,627

120262.00,632

120262.00,637

120262.00,641

120262.00,644

120262.00,646

120262.00,648

120262.00,649

120262.00,651

120262.00,651

120262.00,651

120262.00,650

120262.00,649

120262.00,646

120262.00,645

120256.68,643

120256.68,640

120256.68,638

120256.68,633

120256.68,628

120256.68,623

120256.68,618

120256.68,614

120256.68,609

120256.68,603

120256.68,596

120256.68,591

120256.68,584

120276.79,579

120276.79,573

120276.79,567

120276.79,560

120276.79,553

120276.79,546

120276.79,541

120276.79,535

120276.79,530

120276.79,523

120276.79,517

120276.79,511

120276.79,506

120275.46,501

120275.46,497

120275.46,492

120275.46,487

120275.46,482

120275.46,478

120275.46,474

120275.46,472

120275.46,468

120275.46,464

120275.46,461

120275.46,457

120275.46,455

120278.96,453

120278.96,451

120278.96,449

120278.96,447

120278.96,446

120278.96,444

120278.96,444

120278.96,444

120278.96,444

120278.96,444

120278.96,443

120278.96,442

120278.96,444

120278.96,446

120301.22,446

120301.22,448

120301.22,449

120301.22,451

120301.22,452

120301.22,454

120301.22,457

120301.22,460

120301.22,462

120301.22,464

120301.22,467

120301.22,470

120301.22,474

120303.05,477

120303.05,480

120303.05,483

120303.05,486

120303.05,488

120303.05,492

120303.05,496

120303.05,499

120303.05,502

120303.05,505

120303.05,507

120303.05,510

120303.05,513

120324.82,516

120324.82,518

120324.82,521

120324.82,522

120324.82,524

120324.82,526

120324.82,529

120324.82,530

120324.82,531

120324.82,532

120324.82,532

120324.82,534

120324.82,534

120347.25,535

120347.25,535

120347.25,535

120347.25,534

120347.25,532

120347.25,532

120347.25,532

120347.25,532

120347.25,531

120347.25,529

120347.25,527

120347.25,527

120347.25,524

120347.25,524

120358.22,523

120358.22,520

120358.22,518

120358.22,516

120358.22,514

120358.22,512

120358.22,511

120358.22,509

120358.22,506

120358.22,504

120358.22,501

120358.22,500

120358.22,498

120368.86,497

120368.86,495

120368.86,492

120368.86,490

120368.86,487

120368.86,487

120368.86,485

120368.86,484

120368.86,481

120368.86,479

120368.86,477

120368.86,476

120368.86,475

120371.52,475

120371.52,473

120371.52,471

120371.52,470

120371.52,469

120371.52,469

120371.52,469

120371.52,468

120371.52,467

120371.52,466

120371.52,465

120371.52,465

120371.52,466

120359.72,466

120359.72,466

120359.72,465

120359.72,464

120359.72,464

120359.72,464

120359.72,465

120359.72,465

120359.72,466

120359.72,465

120359.72,465

120359.72,466

120359.72,468

120364.71,469

120364.71,468

120364.71,469

120364.71,469

120364.71,470

120364.71,471

120364.71,472

120364.71,473

120364.71,474

120364.71,475

120364.71,474

120364.71,476

120364.71,477

120364.71,479

120305.38,480

120305.38,480

120305.38,480

120305.38,481

120305.38,483

120305.38,484

120305.38,485

120305.38,486

120305.38,486

120305.38,487

120305.38,488

120305.38,489

120305.38,491

120231.25,492

120231.25,492

120231.25,492

120231.25,493

120231.25,494

120231.25,496

120231.25,497

120231.25,496

120231.25,496

120231.25,497

120231.25,498

120231.25,498

120231.25,499

120213.64,499

120213.64,500

120213.64,499

120213.64,499

120213.64,500

120213.64,500

120213.64,501

120213.64,501

120213.64,500

120213.64,500

120213.64,500

120213.64,501

120213.64,501

120242.72,500

120242.72,500

120242.72,499

120242.72,499

120242.72,498

120242.72,500

120242.72,500

120242.72,499

120242.72,499

120242.72,498

120242.72,497

120242.72,497

120242.72,498

120246.88,498

120246.88,497

120246.88,496

120246.88,495

120246.88,495

120246.88,495

120246.88,495

120246.88,494

120246.88,493

120246.88,492

120246.88,492

120246.88,492

120246.88,492

120246.88,492

120203.50,491

120203.50,491

120203.50,489

120203.50,489

120203.50,489

120203.50,489

120203.50,489

120203.50,488

120203.50,487

120203.50,487

120203.50,486

120203.50,487

120203.50,486

120231.25,486

120231.25,485

120231.25,484

120231.25,484

120231.25,485

120231.25,484

120231.25,484

120231.25,483

120231.25,484

120231.25,483

120231.25,484

120231.25,486

120231.25,487

120314.35,488

120314.35,489

120314.35,491

120314.35,494

120314.35,497

120314.35,501

120314.35,504

120314.35,509

120314.35,511

120314.35,516

120314.35,522

120314.35,527

120314.35,534

120360.88,539

120360.88,545

120360.88,551

120360.88,557

120360.88,564

120360.88,571

120360.88,577

120360.88,584

120360.88,589

120360.88,596

120360.88,601

120360.88,609

120360.88,614

120401.77,618

120401.77,622

120401.77,626

120401.77,630

120401.77,634

120401.77,637

120401.77,640

120401.77,641

120401.77,642

120401.77,642

120401.77,643

120401.77,643

120401.77,643

120401.77,642

120399.60,639

120399.60,636

120399.60,634

120399.60,631

120399.60,628

120399.60,624

120399.60,620

120399.60,614

120399.60,609

120399.60,605

120399.60,600

120399.60,594

120399.60,588

120390.96,582

120390.96,575

120390.96,569

120390.96,563

120390.96,557

120390.96,551

120390.96,545

120390.96,537

120390.96,532

120390.96,526

120390.96,520

120390.96,516

120390.96,509

120357.57,503

120357.57,498

120357.57,493

120357.57,488

120357.57,484

120357.57,480

120357.57,476

120357.57,471

120357.57,467

120357.57,463

120357.57,461

120357.57,459

120357.57,455

120343.77,453

120343.77,450

120343.77,449

120343.77,447

120343.77,446

120343.77,445

120343.77,444

120343.77,443

120343.77,441

120343.77,441

120343.77,441

120343.77,442

120343.77,442

120371.85,443

120371.85,443

120371.85,444

120371.85,445

120371.85,447

120371.85,448

120371.85,451

120371.85,452

120371.85,455

120371.85,456

120371.85,460

120371.85,463

120371.85,466

120371.85,469

120396.78,471

120396.78,475

120396.78,478

120396.78,482

120396.78,486

120396.78,489

120396.78,492

120396.78,495

120396.78,499

120396.78,503

120396.78,507

120396.78,510

120396.78,512

120446.31,515

120446.31,517

120446.31,520

120446.31,524

120446.31,526

120446.31,528

120446.31,529

120446.31,530

120446.31,532

120446.31,534

120446.31,536

120446.31,537

120446.31,537

120497.66,537

120497.66,537

120497.66,537

120497.66,538

120497.66,538

120497.66,539

120497.66,537

120497.66,536

120497.66,535

120497.66,534

120497.66,533

120497.66,531

120497.66,530

120521.42,528

120521.42,526

120521.42,524

120521.42,523

120521.42,521

120521.42,519

120521.42,516

120521.42,513

120521.42,512

120521.42,509

120521.42,508

120521.42,506

120521.42,504

120521.42,500

120522.42,497

120522.42,496

120522.42,494

120522.42,492

120522.42,490

120522.42,488

120522.42,485

120522.42,483

120522.42,482

120522.42,481

120522.42,479

120522.42,478

120522.42,475

120521.77,473

120521.77,472

120521.77,472

120521.77,471

120521.77,470

120521.77,468

120521.77,467

120521.77,466

120521.77,465

120521.77,466

120521.77,466

120521.77,465

120521.77,464

120511.78,463

120511.78,463

120511.78,464

120511.78,464

120511.78,464

120511.78,464

120511.78,463

120511.78,463

120511.78,464

120511.78,465

120511.78,466

120511.78,467

120511.78,467

120485.21,467

120485.21,468

120485.21,469

120485.21,470

120485.21,471

120485.21,472

120485.21,472

120485.21,473

120485.21,473

120485.21,476

120485.21,477

120485.21,478

120485.21,478

120432.17,479

120432.17,480

120432.17,481

120432.17,482

120432.17,484

120432.17,485

120432.17,485

120432.17,486

120432.17,486

120432.17,489

120432.17,490

120432.17,490

120432.17,490

120432.17,491

120425.03,492

120425.03,493

120425.03,495

120425.03,496

120425.03,496

120425.03,495

120425.03,496

120425.03,497

120425.03,498

120425.03,499

120425.03,499

120425.03,499

120425.03,499

120421.55,500

120421.55,500

120421.55,500

120421.55,501

120421.55,501

120421.55,501

120421.55,501

120421.55,501

120421.55,502

120421.55,502

120421.55,502

120421.55,502

120421.55,501

120451.96,501

120451.96,501

120451.96,501

120451.96,502

120451.96,501

120451.96,500

120451.96,499

120451.96,499

120451.96,500

120451.96,499

120451.96,499

120451.96,498

120451.96,497

120477.22,496

120477.22,497

120477.22,496

120477.22,496

120477.22,496

120477.22,495

120477.22,493

120477.22,494

120477.22,493

120477.22,493

120477.22,492

120477.22,492

120477.22,490

120457.94,490

120457.94,490

120457.94,490

120457.94,490

120457.94,489

120457.94,488

120457.94,487

120457.94,487

120457.94,486

120457.94,487

120457.94,487

120457.94,486

120457.94,485

120457.94,484

120517.61,484

120517.61,484

120517.61,484

120517.61,484

120517.61,484

120517.61,484

120517.61,485

120517.61,488

120517.61,489

120517.61,493

120517.61,495

120517.61,497

120517.61,501

120540.05,505

120540.05,510

120540.05,515

120540.05,520

120540.05,525

120540.05,530

120540.05,536

120540.05,542

120540.05,549

120540.05,556

120540.05,563

120540.05,569

120540.05,576

120545.20,583

120545.20,590

120545.20,598

120545.20,604

120545.20,610

120545.20,616

120545.20,621

120545.20,627

120545.20,632

120545.20,638

120545.20,640

120545.20,643

120545.20,647

120536.56,650

120536.56,653

120536.56,654

120536.56,655

120536.56,655

120536.56,655

120536.56,653

120536.56,652

120536.56,651

120536.56,649

120536.56,646

120536.56,642

120536.56,637

120508.96,634

120508.96,631

120508.96,626

120508.96,621

120508.96,616

120508.96,610

120508.96,604

120508.96,598

120508.96,593

120508.96,587

120508.96,580

120508.96,573

120508.96,566

120508.96,560

120502.64,555

120502.64,548

120502.64,543

120502.64,535

120502.64,530

120502.64,524

120502.64,519

120502.64,514

120502.64,509

120502.64,503

120502.64,498

120502.64,493

120502.64,488

120485.86,485

120485.86,481

120485.86,477

120485.86,473

120485.86,469

120485.86,466

120485.86,463

120485.86,460

120485.86,459

120485.86,457

120485.86,454

120485.86,452

120485.86,451

120487.86,450

120487.86,450

120487.86,450

120487.86,449

120487.86,448

120487.86,448

120487.86,448

120487.86,449

120487.86,450

120487.86,451

120487.86,452

120487.86,452

120487.86,453

120448.80,456

120448.80,459

120448.80,461

120448.80,462

120448.80,463

120448.80,466

120448.80,468

120448.80,471

120448.80,475

120448.80,477

120448.80,480

120448.80,481

120448.80,485

120448.80,488

120436.00,492

120436.00,495

120436.00,498

120436.00,500

120436.00,503

120436.00,506

120436.00,509

120436.00,513

120436.00,516

120436.00,518

120436.00,520

120436.00,521

120436.00,524

120427.36,526

120427.36,528

120427.36,529

120427.36,530

120427.36,531

120427.36,531

120427.36,533

120427.36,534

120427.36,534

120427.36,535

120427.36,534

120427.36,534

120427.36,534

120370.02,534

120370.02,534

120370.02,532

120370.02,531

120370.02,530

120370.02,529

120370.02,528

120370.02,527

120370.02,526

120370.02,524

120370.02,521

120370.02,518

120370.02,517

120360.05,516

120360.05,514

120360.05,512

120360.05,509

120360.05,507

120360.05,504

120360.05,502

120360.05,501

120360.05,499

120360.05,497

120360.05,494

120360.05,491

120360.05,489

120360.05,488

120367.36,487

120367.36,485

120367.36,483

120367.36,481

120367.36,479

120367.36,478

120367.36,478

120367.36,477

120367.36,476

120367.36,474

120367.36,472

120367.36,471

120367.36,471

120335.28,471

120335.28,470

120335.28,469

120335.28,469

120335.28,467

120335.28,467

120335.28,468

120335.28,468

120335.28,467

120335.28,467

120335.28,467

120335.28,466

120335.28,468

120391.63,468

120391.63,468

120391.63,468

120391.63,469

120391.63,468

120391.63,469

120391.63,471

120391.63,472

120391.63,472

120391.63,472

120391.63,473

120391.63,474

120391.63,475

120428.03,476

120428.03,478

120428.03,478

120428.03,478

120428.03,479

120428.03,480

120428.03,483

120428.03,484

120428.03,484

120428.03,484

120428.03,485

120428.03,486

120428.03,487

120441.49,489

120441.49,490

120441.49,491

120441.49,491

120441.49,491

120441.49,493

120441.49,494

120441.49,494

120441.49,496

120441.49,496

120441.49,496

120441.49,497

120441.49,498

120441.49,499

120471.91,500

120471.91,500

120471.91,499

120471.91,500

120471.91,500

120471.91,500

120471.91,501

120471.91,501

120471.91,501

120471.91,500

120471.91,500

120471.91,500

120471.91,500

120472.90,501

120472.90,501

120472.90,500

120472.90,499

120472.90,500

120472.90,500

120472.90,500

120472.90,500

120472.90,499

120472.90,499

120472.90,498

120472.90,497

120472.90,498

120511.78,498

120511.78,497

120511.78,497

120511.78,496

120511.78,495

120511.78,495

120511.78,495

120511.78,495

120511.78,494

120511.78,493

120511.78,492

120511.78,492

120511.78,492

120547.03,493

120547.03,493

120547.03,491

120547.03,491

120547.03,490

120547.03,490

120547.03,491

120547.03,490

120547.03,490

120547.03,488

120547.03,487

120547.03,487

120547.03,488

120547.03,487

120504.81,487

120504.81,486

120504.81,484

120504.81,484

120504.81,485

120504.81,485

120504.81,485

120504.81,485

120504.81,484

120504.81,484

120504.81,483

120504.81,483

120504.81,483

120527.75,484

120527.75,483

120527.75,482

120527.75,482

120527.75,483

120527.75,483

120527.75,484

120527.75,484

120527.75,484

120527.75,485

120527.75,486

120527.75,488

120527.75,490

120606.53,493

120606.53,496

120606.53,498

120606.53,502

120606.53,505

120606.53,510

120606.53,515

120606.53,520

120606.53,525

120606.53,530

120606.53,536

120606.53,543

120606.53,550

120645.75,557

120645.75,564

120645.75,572

120645.75,578

120645.75,584

120645.75,593

120645.75,600

120645.75,607

120645.75,612

120645.75,618

120645.75,624

120645.75,629

120645.75,635

120713.07,639

120713.07,643

120713.07,646

120713.07,649

120713.07,651

120713.07,653

120713.07,655

120713.07,656

120713.07,655

120713.07,655

120713.07,654

120713.07,652

120713.07,652

120713.07,649

120729.69,647

120729.69,642

120729.69,637

120729.69,633

120729.69,629

120729.69,625

120729.69,620

120729.69,614

120729.69,607

120729.69,602

120729.69,595

120729.69,589

120729.69,584

120750.30,577

120750.30,570

120750.30,564

120750.30,557

120750.30,551

120750.30,545

120750.30,539

120750.30,532

120750.30,526

120750.30,520

120750.30,513

120750.30,508

120750.30,504

120742.32,498

120742.32,492

120742.32,488

120742.32,483

120742.32,479

120742.32,476

120742.32,471

120742.32,467

120742.32,464

120742.32,460

120742.32,458

120742.32,456

120742.32,455

120718.05,452

120718.05,450

120718.05,447

120718.05,447

120718.05,447

120718.05,445

120718.05,445

120718.05,445

120718.05,444

120718.05,444

120718.05,445

120718.05,446

120718.05,448

120710.08,449

120710.08,449

120710.08,450

120710.08,451

120710.08,453

120710.08,456

120710.08,458

120710.08,460

120710.08,462

120710.08,465

120710.08,467

120710.08,471

120710.08,475

120710.08,477

120700.94,480

120700.94,483

120700.94,486

120700.94,489

120700.94,493

120700.94,496

120700.94,499

120700.94,502

120700.94,504

120700.94,507

120700.94,510

120700.94,514

120700.94,517

120690.96,518

120690.96,520

120690.96,522

120690.96,524

120690.96,526

120690.96,529

120690.96,530

120690.96,530

120690.96,532

120690.96,533

120690.96,534

120690.96,535

120690.96,535

120683.82,534

120683.82,535

120683.82,534

120683.82,534

120683.82,533

120683.82,533

120683.82,533

120683.82,530

120683.82,529

120683.82,528

120683.82,527

120683.82,526

120683.82,524

120683.65,523

120683.65,520

120683.65,518

120683.65,516

120683.65,515

120683.65,513

120683.65,511

120683.65,508

120683.65,505

120683.65,504

120683.65,502

120683.65,501

120683.65,498

120683.65,496

120693.63,494

120693.63,491

120693.63,490

120693.63,488

120693.63,487

120693.63,484

120693.63,482

120693.63,481

120693.63,479

120693.63,478

120693.63,477

120693.63,475

120693.63,474

120688.47,472

120688.47,469

120688.47,470

120688.47,469

120688.47,468

120688.47,467

120688.47,467

120688.47,465

120688.47,465

120688.47,465

120688.47,465

120688.47,466

120688.47,465

120692.63,465

120692.63,464

120692.63,465

120692.63,466

120692.63,466

120692.63,466

120692.63,466

120692.63,466

120692.63,467

120692.63,467

120692.63,469

120692.63,470

120692.63,471

120702.77,470

120702.77,470

120702.77,472

120702.77,473

120702.77,475

120702.77,476

120702.77,476

120702.77,476

120702.77,477

120702.77,479

120702.77,480

120702.77,481

120702.77,482

120691.63,483

120691.63,484

120691.63,485

120691.63,486

120691.63,487

120691.63,488

120691.63,488

120691.63,489

120691.63,490

120691.63,491

120691.63,492

120691.63,493

120691.63,494

120691.63,494

120678.67,494

120678.67,495

120678.67,495

120678.67,497

120678.67,498

120678.67,497

120678.67,497

120678.67,498

120678.67,499

120678.67,499

120678.67,501

120678.67,500

120678.67,500

120690.96,499

120690.96,499

120690.96,500

120690.96,501

120690.96,501

120690.96,500

120690.96,500

120690.96,500

120690.96,500

120690.96,501

120690.96,501

120690.96,501

120690.96,500

120698.11,499

120698.11,499

120698.11,500

120698.11,499

120698.11,499

120698.11,498

120698.11,498

120698.11,497

120698.11,498

120698.11,497

120698.11,497

120698.11,497

120698.11,496

120692.63,495

120692.63,494

120692.63,495

120692.63,495

120692.63,494

120692.63,493

120692.63,493

120692.63,492

120692.63,491

120692.63,492

120692.63,492

120692.63,491

120692.63,490

120720.89,489

120720.89,489

120720.89,488

120720.89,489

120720.89,489

120720.89,488

120720.89,487

120720.89,486

120720.89,486

120720.89,486

120720.89,486

120720.89,485

120720.89,486

120720.89,484

120712.41,485

120712.41,484

120712.41,485

120712.41,485

120712.41,484

120712.41,483

120712.41,482

120712.41,483

120712.41,483

120712.41,484

120712.41,484

120712.41,484

120712.41,483

120734.85,484

120734.85,483

120734.85,483

120734.85,484

120734.85,483

120734.85,483

120734.85,483

120734.85,483

120734.85,485

120734.85,485

120734.85,487

120734.85,487

120734.85,489

120794.68,490

120794.68,493

120794.68,496

120794.68,500

120794.68,501

120794.68,505

120794.68,508

120794.68,512

120794.68,517

120794.68,523

120794.68,529

120794.68,534

120794.68,541

120812.80,546

120812.80,553

120812.80,560

120812.80,568

120812.80,575

120812.80,581

120812.80,587

120812.80,594

120812.80,602

120812.80,609

120812.80,614

120812.80,620

120812.80,626

120849.86,630

120849.86,636

120849.86,641

120849.86,645

120849.86,648

120849.86,650

120849.86,652

120849.86,653

120849.86,656

120849.86,657

120849.86,656

120849.86,655

120849.86,654

120849.86,651

120844.21,649

120844.21,647

120844.21,644

120844.21,640

120844.21,636

120844.21,631

120844.21,626

120844.21,622

120844.21,616

120844.21,611

120844.21,605

120844.21,599

120844.21,592

120819.95,585

120819.95,580

120819.95,574

120819.95,567

120819.95,560

120819.95,554

120819.95,546

120819.95,540

120819.95,534

120819.95,528

120819.95,522

120819.95,515

120819.95,509

120778.22,504

120778.22,499

120778.22,494

120778.22,488

120778.22,483

120778.22,477

120778.22,473

120778.22,469

120778.22,465

120778.22,462

120778.22,458

120778.22,455

120778.22,452

120751.96,451

120751.96,448

120751.96,447

120751.96,445

120751.96,444

120751.96,442

120751.96,441

120751.96,441

120751.96,441

120751.96,441

120751.96,440

120751.96,440

120751.96,441

120729.19,442

120729.19,443

120729.19,445

120729.19,447

120729.19,447

120729.19,449

120729.19,450

120729.19,452

120729.19,456

120729.19,459

120729.19,461

120729.19,464

120729.19,465

120729.19,468

120686.47,472

120686.47,476

120686.47,478

120686.47,480

120686.47,484

120686.47,487

120686.47,491

120686.47,496

120686.47,500

120686.47,503

120686.47,507

120686.47,510

120686.47,514

120639.77,517

120639.77,520

120639.77,523

120639.77,526

120639.77,528

120639.77,530

120639.77,531

120639.77,533

120639.77,535

120639.77,536

120639.77,537

120639.77,537

120639.77,538

120598.38,539

120598.38,540

120598.38,541

120598.38,540

120598.38,540

120598.38,539

120598.38,539

120598.38,538

120598.38,538

120598.38,536

120598.38,535

120598.38,533

120598.38,531

120575.61,529

120575.61,528

120575.61,527

120575.61,525

120575.61,522

120575.61,520

120575.61,517

120575.61,516

120575.61,513

120575.61,512

120575.61,509

120575.61,506

120575.61,504

120545.70,502

120545.70,499

120545.70,498

120545.70,495

120545.70,492

120545.70,490

120545.70,487

120545.70,486

120545.70,484

120545.70,482

120545.70,480

120545.70,479

120545.70,477

120545.70,475

120502.64,474

120502.64,473

120502.64,471

120502.64,470

120502.64,468

120502.64,468

120502.64,467

120502.64,467

120502.64,467

120502.64,466

120502.64,464

120502.64,464

120502.64,464

120462.10,465

120462.10,465

120462.10,464

120462.10,464

120462.10,464

120462.10,464

120462.10,465

120462.10,466

120462.10,466

120462.10,466

120462.10,466

120462.10,467

120462.10,468

120428.53,469

120428.53,470

120428.53,470

120428.53,471

120428.53,471

120428.53,473

120428.53,473

120428.53,475

120428.53,476

120428.53,477

120428.53,477

120428.53,478

120428.53,479

120398.61,481

120398.61,482

120398.61,484

120398.61,484

120398.61,484

120398.61,485

120398.61,487

120398.61,488

120398.61,490

120398.61,490

120398.61,491

120398.61,491

120398.61,492

120371.85,494

120371.85,495

120371.85,496

120371.85,496

120371.85,496

120371.85,497

120371.85,497

120371.85,498

120371.85,499

120371.85,499

120371.85,499

120371.85,499

120371.85,499

120371.85,500

120361.72,501

120361.72,501

120361.72,501

120361.72,500

120361.72,501

120361.72,501

120361.72,502

120361.72,502

120361.72,501

120361.72,501

120361.72,500

120361.72,501

120361.72,501

120347.59,502

120347.59,501

120347.59,500

120347.59,500

120347.59,499

120347.59,500

120347.59,499

120347.59,500

120347.59,499

120347.59,498

120347.59,497

120347.59,496

120347.59,497

120334.46,497

120334.46,497

120334.46,496

120334.46,495

120334.46,494

120334.46,494

120334.46,495

120334.46,494

120334.46,493

120334.46,493

120334.46,492

120334.46,491

120334.46,491

120340.11,491

120340.11,491

120340.11,490

120340.11,489

120340.11,488

120340.11,489

120340.11,490

120340.11,489

120340.11,488

120340.11,487

120340.11,486

120340.11,486

120340.11,487

120309.69,487

120309.69,486

120309.69,486

120309.69,485

120309.69,484

120309.69,484

120309.69,484

120309.69,485

120309.69,485

120309.69,484

120309.69,483

120309.69,483

120309.69,484

120309.69,484

120334.29,483

120334.29,483

120334.29,484

120334.29,483

120334.29,484

120334.29,485

120334.29,487

120334.29,488

120334.29,489

120334.29,490

120334.29,493

120334.29,496

120334.29,499

120367.36,502

120367.36,507

120367.36,509

120367.36,514

120367.36,519

120367.36,525

120367.36,532

120367.36,538

120367.36,544

120367.36,550

120367.36,557

120367.36,565

120367.36,572

120410.91,580

120410.91,587

120410.91,593

120410.91,600

120410.91,607

120410.91,615

120410.91,621

120410.91,627

120410.91,632

120410.91,637

120410.91,641

120410.91,646

120410.91,650

120449.30,654

120449.30,656

120449.30,658

120449.30,659

120449.30,660

120449.30,661

120449.30,662

120449.30,660

120449.30,659

120449.30,657

120449.30,654

120449.30,652

120449.30,649

120443.49,646

120443.49,642

120443.49,636

120443.49,631

120443.49,626

120443.49,621

120443.49,615

120443.49,609

120443.49,603

120443.49,596

120443.49,589

120443.49,583

120443.49,577

120443.49,571

120460.10,564

120460.10,557

120460.10,549

120460.10,543

120460.10,537

120460.10,531

120460.10,525

120460.10,519

120460.10,512

120460.10,506

120460.10,501

120460.10,496

120460.10,491

120465.42,487

120465.42,481

120465.42,477

120465.42,472

120465.42,469

120465.42,466

120465.42,463

120465.42,459

120465.42,456

120465.42,453

120465.42,451

120465.42,450

120465.42,449

120445.97,448

120445.97,446

120445.97,444

120445.97,444

120445.97,444

120445.97,443

120445.97,444

120445.97,444

120445.97,444

120445.97,444

120445.97,445

120445.97,447

120445.97,449

120447.64,451

120447.64,451

120447.64,453

120447.64,455

120447.64,458

120447.64,461

120447.64,464

120447.64,466

120447.64,468

120447.64,471

120447.64,474

120447.64,477

120447.64,480

120447.64,484

120441.16,486

120441.16,489

120441.16,492

120441.16,495

120441.16,500

120441.16,503

120441.16,506

120441.16,508

120441.16,511

120441.16,513

120441.16,516

120441.16,519

120441.16,522

120441.32,524

120441.32,525

120441.32,526

120441.32,528

120441.32,530

120441.32,531

120441.32,532

120441.32,533

120441.32,533

120441.32,534

120441.32,535

120441.32,535

120441.32,535

120430.02,534

120430.02,534

120430.02,533

120430.02,533

120430.02,532

120430.02,531

120430.02,530

120430.02,528

120430.02,526

120430.02,525

120430.02,523

120430.02,522

120430.02,521

120432.85,519

120432.85,516

120432.85,514

120432.85,512

120432.85,510

120432.85,509

120432.85,508

120432.85,505

120432.85,501

120432.85,500

120432.85,498

120432.85,496

120432.85,495

120418.89,493

120418.89,490

120418.89,488

120418.89,486

120418.89,485

120418.89,483

120418.89,482

120418.89,480

120418.89,477

120418.89,476

120418.89,475

120418.89,474

120418.89,473

120418.89,472

120379.50,470

120379.50,469

120379.50,469

120379.50,468

120379.50,468

120379.50,467

120379.50,466

120379.50,465

120379.50,465

120379.50,465

120379.50,465

120379.50,465

120379.50,465

120343.27,465

120343.27,465

120343.27,465

120343.27,466

120343.27,467

120343.27,467

120343.27,467

120343.27,467

120343.27,468

120343.27,469

120343.27,470

120343.27,471

120343.27,472

120324.32,472

120324.32,472

120324.32,472

120324.32,474

120324.32,475

120324.32,477

120324.32,478

120324.32,478

120324.32,479

120324.32,481

120324.32,482

120324.32,483

120324.32,483

120290.42,484

120290.42,485

120290.42,486

120290.42,488

120290.42,488

120290.42,489

120290.42,490

120290.42,490

120290.42,491

120290.42,491

120290.42,493

120290.42,494

120290.42,495

120256.02,496

120256.02,495

120256.02,496

120256.02,497

120256.02,498

120256.02,499

120256.02,498

120256.02,498

120256.02,498

120256.02,499

120256.02,499

120256.02,500

120256.02,500

120256.02,499

120248.71,499

120248.71,499

120248.71,500

120248.71,500

120248.71,500

120248.71,501

120248.71,499

120248.71,499

120248.71,499

120248.71,500

120248.71,500

120248.71,500

120248.71,498

120232.75,498

120232.75,497

120232.75,497

120232.75,498

120232.75,498

120232.75,497

120232.75,496

120232.75,495

120232.75,495

120232.75,495

120232.75,495

120232.75,494

120232.75,493

120246.38,493

120246.38,492

120246.38,491

120246.38,492

120246.38,492

120246.38,491

120246.38,491

120246.38,489

120246.38,488

120246.38,489

120246.38,489

120246.38,488

120246.38,488

120252.86,488

120252.86,487

120252.86,487

120252.86,487

120252.86,488

120252.86,487

120252.86,486

120252.86,485

120252.86,485

120252.86,485

120252.86,486

120252.86,485

120252.86,485

120252.86,485

120211.14,484

120211.14,485

120211.14,484

120211.14,485

120211.14,485

120211.14,484

120211.14,483

120211.14,483

120211.14,482

120211.14,483

120211.14,484

120211.14,483

120211.14,482

120264.32,482

120264.32,482

120264.32,483

120264.32,484

120264.32,485

120264.32,485

120264.32,486

120264.32,487

120264.32,489

120264.32,491

120264.32,494

120264.32,496

120264.32,498

120321.50,502

120321.50,506

120321.50,510

120321.50,516

120321.50,520

120321.50,525

120321.50,531

120321.50,537

120321.50,543

120321.50,551

120321.50,558

120321.50,565

120321.50,571

120334.13,578

120334.13,586

120334.13,593

120334.13,600

120334.13,608

120334.13,614

120334.13,620

120334.13,625

120334.13,631

120334.13,637

120334.13,642

120334.13,646

120334.13,650

120353.57,652

120353.57,655

120353.57,657

120353.57,659

120353.57,660

120353.57,660

120353.57,659

120353.57,657

120353.57,657

120353.57,656

120353.57,654

120353.57,650

120353.57,646

120353.57,642

120343.60,638

120343.60,634

120343.60,629

120343.60,624

120343.60,619

120343.60,612

120343.60,606

120343.60,600

120343.60,594

120343.60,589

120343.60,582

120343.60,575

120343.60,568

120351.25,561

120351.25,555

120351.25,548

120351.25,542

120351.25,535

120351.25,529

120351.25,521

120351.25,515

120351.25,510

120351.25,506

120351.25,499

120351.25,494

120351.25,488

120324.32,483

120324.32,479

120324.32,475

120324.32,472

120324.32,467

120324.32,464

120324.32,459

120324.32,457

120324.32,455

120324.32,453

120324.32,451

120324.32,448

120324.32,445

120343.60,445

120343.60,443

120343.60,444

120343.60,444

120343.60,442

120343.60,441

120343.60,440

120343.60,441

120343.60,442

120343.60,443

120343.60,444

120343.60,444

120343.60,445

120343.60,447

120375.85,449

120375.85,452

120375.85,455

120375.85,456

120375.85,459

120375.85,460

120375.85,463

120375.85,467

120375.85,471

120375.85,473

120375.85,476

120375.85,478

120375.85,482

120368.03,485

120368.03,490

120368.03,493

120368.03,496

120368.03,499

120368.03,501

120368.03,504

120368.03,508

120368.03,511

120368.03,515

120368.03,517

120368.03,519

120368.03,521

120382.66,523

120382.66,527

120382.66,529

120382.66,530

120382.66,531

120382.66,532

120382.66,534

120382.66,535

120382.66,536

120382.66,537

120382.66,537

120382.66,537

120382.66,536

120399.44,536

120399.44,537

120399.44,536

120399.44,536

120399.44,534

120399.44,533

120399.44,532

120399.44,531

120399.44,530

120399.44,528

120399.44,526

120399.44,523

120399.44,521

120418.05,520

120418.05,518

120418.05,517

120418.05,515

120418.05,511

120418.05,509

120418.05,507

120418.05,505

120418.05,503

120418.05,502

120418.05,499

120418.05,496

120418.05,493

120418.05,491

120431.19,490

120431.19,488

120431.19,485

120431.19,483

120431.19,482

120431.19,479

120431.19,477

120431.19,477

120431.19,476

120431.19,474

120431.19,472

120431.19,470

120431.19,470

120437.00,469

120437.00,468

120437.00,467

120437.00,467

120437.00,465

120437.00,464

120437.00,465

120437.00,464

120437.00,464

120437.00,464

120437.00,463

120437.00,463

120437.00,463

120428.53,464

120428.53,464

120428.53,465

120428.53,465

120428.53,464

120428.53,464

120428.53,466

120428.53,466

120428.53,468

120428.53,468

120428.53,469

120428.53,469

120428.53,470

120444.82,471

120444.82,473

120444.82,474

120444.82,475

120444.82,475

120444.82,476

120444.82,477

120444.82,479

120444.82,480

120444.82,481

120444.82,481

120444.82,482

120444.82,483

120444.82,484

120440.83,486

120440.83,487

120440.83,487

120440.83,488

120440.83,489

120440.83,490

120440.83,491

120440.83,492

120440.83,493

120440.83,494

120440.83,494

120440.83,494

120440.83,496

120443.82,497

120443.82,497

120443.82,497

120443.82,497

120443.82,497

120443.82,498

120443.82,498

120443.82,499

120443.82,500

120443.82,500

120443.82,500

120443.82,500

120443.82,501

120461.27,501

120461.27,502

120461.27,502

120461.27,501

120461.27,501

120461.27,500

120461.27,501

120461.27,502

120461.27,502

120461.27,501

120461.27,500

120461.27,500

120461.27,500

120472.90,500

120472.90,500

120472.90,499

120472.90,498

120472.90,498

120472.90,498

120472.90,498

120472.90,498

120472.90,498

120472.90,497

120472.90,496

120472.90,495

120472.90,495

120475.57,496

120475.57,495

120475.57,495

120475.57,494

120475.57,492

120475.57,493

120475.57,492

120475.57,493

120475.57,493

120475.57,492

120475.57,490

120475.57,490

120475.57,490

120475.57,490

120513.62,490

120513.62,489

120513.62,488

120513.62,487

120513.62,488

120513.62,487

120513.62,487

120513.62,488

120513.62,487

120513.62,487

120513.62,486

120513.62,486

120513.62,486

120527.92,487

120527.92,487

120527.92,486

120527.92,485

120527.92,485

120527.92,485

120527.92,485

120527.92,486

120527.92,485

120527.92,485

120527.92,483

120527.92,484

120527.92,484

120543.38,485

120543.38,484

120543.38,484

120543.38,483

120543.38,483

120543.38,483

120543.38,484

120543.38,484

120543.38,484

120543.38,484

120543.38,484

120543.38,483

120543.38,484

120606.36,485

120606.36,486

120606.36,487

120606.36,487

120606.36,488

120606.36,491

120606.36,493

120606.36,496

120606.36,498

120606.36,501

120606.36,505

120606.36,509

120606.36,514

120645.09,519

120645.09,525

120645.09,530

120645.09,536

120645.09,541

120645.09,549

120645.09,555

120645.09,563

120645.09,570

120645.09,576

120645.09,582

120645.09,589

120645.09,596

120645.09,603

120629.80,610

120629.80,616

120629.80,622

120629.80,626

120629.80,631

120629.80,637

120629.80,642

120629.80,646

120629.80,649

120629.80,651

120629.80,654

120629.80,656

120629.80,658

120596.72,660

120596.72,659

120596.72,658

120596.72,657

120596.72,656

120596.72,654

120596.72,652

120596.72,649

120596.72,645

120596.72,641

120596.72,636

120596.72,632

120596.72,628

120586.08,623

120586.08,617

120586.08,610

120586.08,603

120586.08,597

120586.08,591

120586.08,585

120586.08,578

120586.08,571

120586.08,564

120586.08,557

120586.08,551

120586.08,545

120546.03,539

120546.03,532

120546.03,526

120546.03,518

120546.03,513

120546.03,507

120546.03,502

120546.03,497

120546.03,491

120546.03,485

120546.03,480

120546.03,477

120546.03,472

120546.03,469

120499.99,466

120499.99,461

120499.99,457

120499.99,454

120499.99,452

120499.99,450

120499.99,449

120499.99,447

120499.99,443

120499.99,443

120499.99,441

120499.99,440

120499.99,440

120501.65,439

120501.65,439

120501.65,438

120501.65,439

120501.65,439

120501.65,441

120501.65,442

120501.65,443

120501.65,445

120501.65,445

120501.65,447

120501.65,450

120501.65,454

120480.71,455

120480.71,458

120480.71,461

120480.71,463

120480.71,467

120480.71,470

120480.71,474

120480.71,478

120480.71,481

120480.71,483

120480.71,487

120480.71,491

120480.71,495

120444.82,499

120444.82,502

120444.82,505

120444.82,508

120444.82,511

120444.82,515

120444.82,519

120444.82,521

120444.82,523

120444.82,525

120444.82,527

120444.82,530

120444.82,532

120444.82,534

120401.10,535

120401.10,536

120401.10,537

120401.10,538

120401.10,539

120401.10,540

120401.10,540

120401.10,540

120401.10,539

120401.10,540

120401.10,539

120401.10,538

120401.10,538

120383.32,537

120383.32,535

120383.32,533

120383.32,532

120383.32,531

120383.32,530

120383.32,528

120383.32,525

120383.32,522

120383.32,520

120383.32,519

120383.32,517

120383.32,515

120360.39,512

120360.39,510

120360.39,507

120360.39,505

120360.39,502

120360.39,501

120360.39,499

120360.39,496

120360.39,493

120360.39,492

120360.39,490

120360.39,489

120360.39,486

120322.83,485

120322.83,482

120322.83,480

120322.83,478

120322.83,477

120322.83,477

120322.83,474

120322.83,473

120322.83,471

120322.83,470

120322.83,469

120322.83,468

120322.83,468

120292.25,468

120292.25,466

120292.25,465

120292.25,465

120292.25,465

120292.25,465

120292.25,464

120292.25,464

120292.25,464

120292.25,463

120292.25,464

120292.25,465

120292.25,465

120292.25,464

120278.12,464

120278.12,465

120278.12,465

120278.12,467

120278.12,468

120278.12,468

120278.12,469

120278.12,469

120278.12,470

120278.12,470

120278.12,472

120278.12,473

120278.12,474

120238.07,475

120238.07,475

120238.07,476

120238.07,478

120238.07,479

120238.07,480

120238.07,481

120238.07,482

120238.07,482

120238.07,483

120238.07,485

120238.07,486

120238.07,487

120216.13,488

120216.13,488

120216.13,489

120216.13,490

120216.13,492

120216.13,493

120216.13,494

120216.13,494

120216.13,494

120216.13,495

120216.13,496

120216.13,497

120216.13,498

120216.63,498

120216.63,499

120216.63,499

120216.63,499

120216.63,500

120216.63,501

120216.63,501

120216.63,501

120216.63,501

120216.63,502

120216.63,502

120216.63,502

120216.63,502

120205.33,502

120205.33,501

120205.33,501

120205.33,502

120205.33,501

120205.33,502

120205.33,502

120205.33,501

120205.33,500

120205.33,500

120205.33,501

120205.33,501

120205.33,500

120205.33,498

120203.67,498

120203.67,499

120203.67,498

120203.67,498

120203.67,498

120203.67,497

120203.67,496

120203.67,496

120203.67,496

120203.67,495

120203.67,496

120203.67,495

120203.67,494

120222.78,493

120222.78,492

120222.78,492

120222.78,492

120222.78,493

120222.78,492

120222.78,491

120222.78,490

120222.78,489

120222.78,490

120222.78,490

120222.78,489

120222.78,489

120189.38,488

120189.38,487

120189.38,488

120189.38,488

120189.38,487

120189.38,487

120189.38,486

120189.38,486

120189.38,485

120189.38,486

120189.38,485

120189.38,485

120189.38,485

120177.24,483

120177.24,483

120177.24,483

120177.24,483

120177.24,484

120177.24,483

120177.24,482

120177.24,483

120177.24,482

120177.24,482

120177.24,483

120177.24,483

120177.24,483

120227.10,483

120227.10,484

120227.10,485

120227.10,486

120227.10,489

120227.10,490

120227.10,493

120227.10,495

120227.10,498

120227.10,502

120227.10,506

120227.10,512

120227.10,515

120227.10,520

120231.59,525

120231.59,532

120231.59,538

120231.59,545

120231.59,551

120231.59,558

120231.59,564

120231.59,572

120231.59,578

120231.59,586

120231.59,593

120231.59,600

120231.59,607

120254.19,612

120254.19,619

120254.19,625

120254.19,631

120254.19,636

120254.19,641

120254.19,645

120254.19,648

120254.19,651

120254.19,655

120254.19,657

120254.19,658

120254.19,658

120257.67,658

120257.67,659

120257.67,659

120257.67,658

120257.67,656

120257.67,653

120257.67,650

120257.67,647

120257.67,643

120257.67,640

120257.67,635

120257.67,630

120257.67,624

120224.61,618

120224.61,612

120224.61,607

120224.61,602

120224.61,594

120224.61,588

120224.61,581

120224.61,574

120224.61,567

120224.61,561

120224.61,554

120224.61,548

120224.61,541

120215.13,534

120215.13,528

120215.13,522

120215.13,517

120215.13,511

120215.13,505

120215.13,499

120215.13,493

120215.13,489

120215.13,485

120215.13,481

120215.13,476

120215.13,472

120215.13,467

120181.39,464

120181.39,461

120181.39,459

120181.39,456

120181.39,453

120181.39,451

120181.39,448

120181.39,447

120181.39,445

120181.39,445

120181.39,443

120181.39,442

120181.39,441

120170.60,441

120170.60,441

120170.60,442

120170.60,443

120170.60,442

120170.60,443

120170.60,444

120170.60,445

120170.60,448

120170.60,450

120170.60,452

120170.60,454

120170.60,455

120158.14,458

120158.14,461

120158.14,464

120158.14,468

120158.14,470

120158.14,472

120158.14,475

120158.14,478

120158.14,483

120158.14,486

120158.14,489

120158.14,492

120158.14,495

120140.85,498

120140.85,502

120140.85,505

120140.85,509

120140.85,511

120140.85,513

120140.85,516

120140.85,519

120140.85,521

120140.85,524

120140.85,526

120140.85,528

120140.85,529

120106.28,531

120106.28,532

120106.28,534

120106.28,536

120106.28,536

120106.28,536

120106.28,536

120106.28,536

120106.28,537

120106.28,537

120106.28,536

120106.28,535

120106.28,534

120106.28,533

120118.58,532

120118.58,532

120118.58,531

120118.58,529

120118.58,528

120118.58,525

120118.58,524

120118.58,522

120118.58,520

120118.58,519

120118.58,517

120118.58,514

120118.58,511

120133.37,509

120133.37,507

120133.37,507

120133.37,504

120133.37,500

120133.37,498

120133.37,496

120133.37,494

120133.37,492

120133.37,491

120133.37,489

120133.37,486

120133.37,483

120117.75,483

120117.75,481

120117.75,480

120117.75,479

120117.75,476

120117.75,474

120117.75,472

120117.75,472

120117.75,472

120117.75,470

120117.75,469

120117.75,468

120117.75,467

120099.80,467

120099.80,467

120099.80,466

120099.80,466

120099.80,465

120099.80,464

120099.80,464

120099.80,464

120099.80,465

120099.80,465

120099.80,465

120099.80,465

120099.80,465

120099.80,466

120097.32,467

120097.32,468

120097.32,468

120097.32,469

120097.32,469

120097.32,469

120097.32,470

120097.32,471

120097.32,472

120097.32,473

120097.32,473

120097.32,473

120097.32,474

120071.39,475

120071.39,477

120071.39,478

120071.39,479

120071.39,480

120071.39,480

120071.39,481

120071.39,483

120071.39,485

120071.39,486

120071.39,487

120071.39,487

120071.39,488

120057.27,489

120057.27,491

120057.27,492

120057.27,492

120057.27,492

120057.27,492

120057.27,495

120057.27,495

120057.27,496

120057.27,496

120057.27,497

120057.27,497

120057.27,497

120053.11,499

120053.11,499

120053.11,500

120053.11,500

120053.11,500

120053.11,500

120053.11,500

120053.11,502

120053.11,501

120053.11,502

120053.11,501

120053.11,500

120053.11,500

120055.10,501

120055.10,502

120055.10,502

120055.10,501

120055.10,500

120055.10,500

120055.10,500

120055.10,500

120055.10,501

120055.10,500

120055.10,500

120055.10,498

120055.10,497

120055.10,497

120045.80,498

120045.80,498

120045.80,498

120045.80,497

120045.80,496

120045.80,496

120045.80,495

120045.80,496

120045.80,496

120045.80,495

120045.80,494

120045.80,494

120045.80,493

120077.53,494

120077.53,494

120077.53,493

120077.53,492

120077.53,491

120077.53,490

120077.53,491

120077.53,492

120077.53,491

120077.53,490

120077.53,490

120077.53,489

120077.53,489

120051.61,489

120051.61,490

120051.61,489

120051.61,489

120051.61,487

120051.61,487

120051.61,487

120051.61,487

120051.61,487

120051.61,487

120051.61,485

120051.61,485

120051.61,484

120060.25,485

120060.25,486

120060.25,484

120060.25,484

120060.25,484

120060.25,483

120060.25,482

120060.25,483

120060.25,483

120060.25,483

120060.25,483

120060.25,482

120060.25,483

120103.13,485

120103.13,486

120103.13,487

120103.13,487

120103.13,488

120103.13,491

120103.13,495

120103.13,497

120103.13,501

120103.13,505

120103.13,508

120103.13,512

120103.13,517

120103.13,524

120116.75,530

120116.75,536

120116.75,541

120116.75,548

120116.75,555

120116.75,562

120116.75,570

120116.75,578

120116.75,584

120116.75,591

120116.75,598

120116.75,605

120116.75,612

120128.39,618

120128.39,624

120128.39,629

120128.39,634

120128.39,639

120128.39,643

120128.39,648

120128.39,651

120128.39,654

120128.39,655

120128.39,656

120128.39,657

120128.39,658

120115.60,658

120115.60,658

120115.60,656

120115.60,654

120115.60,651

120115.60,649

120115.60,646

120115.60,643

120115.60,638

120115.60,633

120115.60,627

120115.60,622

120115.60,617

120075.04,612

120075.04,606

120075.04,600

120075.04,593

120075.04,586

120075.04,580

120075.04,573

120075.04,567

120075.04,561

120075.04,554

120075.04,546

120075.04,540

120075.04,535

120075.04,529

120054.44,523

120054.44,516

120054.44,510

120054.44,503

120054.44,498

120054.44,494

120054.44,490

120054.44,484

120054.44,479

120054.44,474

120054.44,470

120054.44,467

120054.44,464

120021.70,461

120021.70,458

120021.70,454

120021.70,451

120021.70,449

120021.70,448

120021.70,446

120021.70,445

120021.70,443

120021.70,441

120021.70,441

120021.70,440

120021.70,440

120022.86,441

120022.86,441

120022.86,440

120022.86,441

120022.86,442

120022.86,443

120022.86,446

120022.86,447

120022.86,448

120022.86,449

120022.86,451

120022.86,454

120022.86,457

120023.69,461

120023.69,462

120023.69,464

120023.69,467

120023.69,470

120023.69,474

120023.69,477

120023.69,480

120023.69,484

120023.69,487

120023.69,489

120023.69,494

120023.69,497

120032.17,501

120032.17,503

120032.17,507

120032.17,509

120032.17,512

120032.17,515

120032.17,518

120032.17,521

120032.17,522

120032.17,524

120032.17,526

120032.17,527

120032.17,530

120032.17,532

120037.32,533

120037.32,534

120037.32,534

120037.32,534

120037.32,535

120037.32,535

120037.32,536

120037.32,536

120037.32,535

120037.32,533

120037.32,534

120037.32,533

120037.32,533

120057.42,531

120057.42,530

120057.42,528

120057.42,527

120057.42,525

120057.42,524

120057.42,523

120057.42,521

120057.42,518

120057.42,515

120057.42,514

120057.42,512

120057.42,510

120085.67,509

120085.67,506

120085.67,503

120085.67,500

120085.67,498

120085.67,498

120085.67,496

120085.67,493

120085.67,491

120085.67,489

120085.67,487

120085.67,486

120085.67,484

120091.50,483

120091.50,481

120091.50,479

120091.50,477

